0,1.05893
0.00390625,0.999357
0.0078125,0.933132
0.0117188,0.744792
0.015625,0.664672
0.0195313,0.328846
0.0234375,0.136133
0.0273438,-0.00837916
0.03125,-0.131494
0.0351563,-0.1437
0.0390625,-0.182276
0.0429688,-0.215992
0.046875,-0.128979
0.0507813,-0.131278
0.0546875,-0.0675223
0.0585938,0.0027252
0.0625,0.0467067
0.0664063,-0.078859
0.0703125,-0.0658536
0.0742188,0.0626352
0.078125,-0.0462435
0.0820313,0.0476623
0.0859375,0.0535328
0.0898438,0.122938
0.09375,0.0501136
0.0976563,0.034033
0.101563,0.0919253
0.105469,0.108374
0.109375,0.0667457
0.113281,0.0351678
0.117188,-0.00115748
0.121094,0.0896459
0.125,0.0288452
0.128906,-0.0102636
0.132813,0.136738
0.136719,0.0397245
0.140625,0.0856079
0.144531,0.141222
0.148438,0.0826385
0.152344,0.165799
0.15625,0.105852
0.160156,0.172638
0.164063,0.186488
0.167969,0.144543
0.171875,0.0710717
0.175781,0.145054
0.179688,0.176092
0.183594,0.158212
0.1875,0.157025
0.191406,0.29588
0.195313,0.231833
0.199219,0.338024
0.203125,0.253539
0.207031,0.344064
0.210938,0.284527
0.214844,0.381661
0.21875,0.385494
0.222656,0.324123
0.226563,0.305506
0.230469,0.433373
0.234375,0.477326
0.238281,0.364201
0.242188,0.44309
0.246094,0.405536
0.25,0.4922
0.253906,0.485606
0.257813,0.370194
0.261719,0.512566
0.265625,0.540046
0.269531,0.445303
0.273438,0.518052
0.277344,0.456006
0.28125,0.364917
0.285156,0.367834
0.289063,0.40163
0.292969,0.460996
0.296875,0.466174
0.300781,0.447784
0.304688,0.341301
0.308594,0.371422
0.3125,0.268949
0.316406,0.259113
0.320313,0.249429
0.324219,0.343
0.328125,0.291218
0.332031,0.214958
0.335938,0.260874
0.339844,0.176372
0.34375,0.143037
0.347656,0.287679
0.351563,0.21553
0.355469,0.275687
0.359375,0.215986
0.363281,0.180708
0.367188,0.215402
0.371094,0.217034
0.375,0.228714
0.378906,0.0215511
0.382813,0.18583
0.386719,0.1273
0.390625,0.195534
0.394531,0.0965174
0.398438,0.0809704
0.402344,0.140033
0.40625,0.0206099
0.410156,0.0704855
0.414063,0.147377
0.417969,0.0789603
0.421875,0.130335
0.425781,0.106715
0.429688,0.074257
0.433594,0.00483191
0.4375,0.0875146
0.441406,-0.0300366
0.445313,0.0777518
0.449219,0.084268
0.453125,0.0977437
0.457031,0.129822
0.460938,0.148143
0.464844,0.105601
0.46875,0.0682866
0.472656,0.137946
0.476563,0.068663
0.480469,-0.0435304
0.484375,-0.0222684
0.488281,0.12664
0.492188,0.0515385
0.496094,0.12427
0.5,-0.00217019
0.503906,0.0670832
0.507813,0.0832982
0.511719,-0.0355677
0.515625,0.081701
0.519531,0.031973
0.523438,-0.0298655
0.527344,0.0588815
0.53125,0.000209182
0.535156,-0.0129383
0.539063,0.0042788
0.542969,-0.00678231
0.546875,0.00246806
0.550781,-0.0260747
0.554688,0.0931759
0.558594,0.0232501
0.5625,0.075334
0.566406,0.107382
0.570313,0.0689022
0.574219,0.0769642
0.578125,0.0595603
0.582031,-0.00397555
0.585938,0.0700185
0.589844,0.143251
0.59375,0.148137
0.597656,0.028107
0.601563,0.0164351
0.605469,0.0884327
0.609375,0.104194
0.613281,0.060235
0.617188,0.0187268
0.621094,0.167828
0.625,-0.00462437
0.628906,0.000835874
0.632813,0.00885075
0.636719,0.0145025
0.640625,0.106193
0.644531,0.0975606
0.648438,-0.00591114
0.652344,0.17083
0.65625,0.131315
0.660156,0.134244
0.664063,0.000579408
0.667969,0.161378
0.671875,0.177776
0.675781,0.189649
0.679688,0.16676
0.683594,0.154687
0.6875,0.103331
0.691406,0.0398174
0.695313,0.0883113
0.699219,0.0404233
0.703125,0.0256448
0.707031,0.214035
0.710938,0.0942273
0.714844,0.101924
0.71875,0.119377
0.722656,0.157289
0.726563,0.205664
0.730469,0.0941939
0.734375,0.271559
0.738281,0.229571
0.742188,0.303699
0.746094,0.217788
0.75,0.252682
0.753906,0.189268
0.757813,0.228094
0.761719,0.338367
0.765625,0.283619
0.769531,0.407
0.773438,0.258733
0.777344,0.438339
0.78125,0.351821
0.785156,0.385913
0.789063,0.442646
0.792969,0.296084
0.796875,0.314822
0.800781,0.315994
0.804688,0.364966
0.808594,0.36342
0.8125,0.206273
0.816406,0.207504
0.820313,0.228995
0.824219,0.153435
0.828125,0.231611
0.832031,0.179904
0.835938,0.133949
0.839844,0.127457
0.84375,0.254484
0.847656,0.197385
0.851563,0.146029
0.855469,0.225966
0.859375,0.0566748
0.863281,0.178446
0.867188,0.171133
0.871094,0.131769
0.875,0.0525685
0.878906,0.132109
0.882813,0.069929
0.886719,0.0340608
0.890625,0.0468317
0.894531,0.180335
0.898438,0.0104617
0.902344,0.0354713
0.90625,-0.0163161
0.910156,0.0425572
0.914063,-0.0653781
0.917969,0.0877674
0.921875,-0.0742378
0.925781,-0.110943
0.929688,-0.0746231
0.933594,-0.0359488
0.9375,-0.073415
0.941406,0.168732
0.945313,0.13128
0.949219,0.249452
0.953125,0.351835
0.957031,0.563543
0.960938,0.679657
0.964844,0.92211
0.96875,1.08445
0.972656,1.1125
0.976563,0.993184
0.980469,0.916222
0.984375,0.925942
0.988281,0.786796
0.992188,0.53263
0.996094,0.270246
1,0.25373
1.00391,0.0244354
1.00781,-0.0842442
1.01172,-0.0607408
1.01563,-0.243356
1.01953,-0.243292
1.02344,-0.105114
1.02734,-0.0890295
1.03125,-0.0677865
1.03516,0.0111256
1.03906,0.0417756
1.04297,0.0859112
1.04688,0.00967447
1.05078,0.10676
1.05469,0.0906405
1.05859,0.0659345
1.0625,0.00378074
1.06641,0.150838
1.07031,0.0649321
1.07422,0.121398
1.07813,0.15057
1.08203,0.0259133
1.08594,0.0332993
1.08984,0.120676
1.09375,0.111174
1.09766,0.195936
1.10156,0.181734
1.10547,0.173334
1.10938,0.0417151
1.11328,0.0514996
1.11719,0.0606249
1.12109,0.209138
1.125,0.245178
1.12891,0.201025
1.13281,0.0990306
1.13672,0.226141
1.14063,0.113311
1.14453,0.125047
1.14844,0.240658
1.15234,0.189883
1.15625,0.267101
1.16016,0.298959
1.16406,0.279095
1.16797,0.324262
1.17188,0.237427
1.17578,0.351991
1.17969,0.413902
1.18359,0.408103
1.1875,0.266948
1.19141,0.337957
1.19531,0.353324
1.19922,0.430994
1.20313,0.427623
1.20703,0.479357
1.21094,0.407738
1.21484,0.387289
1.21875,0.374333
1.22266,0.521238
1.22656,0.416679
1.23047,0.460645
1.23438,0.499469
1.23828,0.439634
1.24219,0.525509
1.24609,0.495788
1.25,0.429484
1.25391,0.55411
1.25781,0.414761
1.26172,0.448777
1.26563,0.431282
1.26953,0.482458
1.27344,0.385804
1.27734,0.438642
1.28125,0.367588
1.28516,0.357191
1.28906,0.478922
1.29297,0.366946
1.29688,0.415339
1.30078,0.473029
1.30469,0.351773
1.30859,0.389086
1.3125,0.386449
1.31641,0.305993
1.32031,0.335247
1.32422,0.210934
1.32813,0.360828
1.33203,0.197025
1.33594,0.198693
1.33984,0.291518
1.34375,0.216643
1.34766,0.260826
1.35156,0.174855
1.35547,0.139573
1.35938,0.082479
1.36328,0.200454
1.36719,0.14318
1.37109,0.13979
1.375,0.164275
1.37891,0.0477158
1.38281,0.0931762
1.38672,0.179358
1.39063,0.159488
1.39453,0.0412108
1.39844,0.0386311
1.40234,0.0279973
1.40625,0.00843795
1.41016,0.0892224
1.41406,0.133798
1.41797,0.145674
1.42188,0.106026
1.42578,0.0205011
1.42969,0.124274
1.43359,0.0226069
1.4375,0.0237319
1.44141,0.0163099
1.44531,0.024851
1.44922,0.030066
1.45313,0.0357348
1.45703,0.0601346
1.46094,0.0601495
1.46484,0.0406621
1.46875,0.0476954
1.47266,0.176459
1.47656,0.138954
1.48047,0.109933
1.48438,0.0361806
1.48828,0.0422346
1.49219,0.0158523
1.49609,0.183712
1.5,0.142873
1.50391,0.113671
1.50781,0.065383
1.51172,0.0365197
1.51563,0.128355
1.51953,0.202013
1.52344,0.0390733
1.52734,0.0570969
1.53125,0.0854399
1.53516,0.0214106
1.53906,0.143953
1.54297,0.0881267
1.54688,0.204725
1.55078,0.0891005
1.55469,0.133303
1.55859,0.04055
1.5625,0.0864498
1.56641,0.0429089
1.57031,0.162802
1.57422,0.185894
1.57813,0.0823151
1.58203,0.14975
1.58594,0.0719509
1.58984,0.119721
1.59375,0.180551
1.59766,0.134033
1.60156,0.0820637
1.60547,0.0753133
1.60938,0.106455
1.61328,0.100938
1.61719,0.0888068
1.62109,0.129034
1.625,0.166379
1.62891,0.103271
1.63281,0.104842
1.63672,0.0445476
1.64063,0.0251081
1.64453,0.0789694
1.64844,0.0852342
1.65234,0.153383
1.65625,0.215103
1.66016,0.212132
1.66406,0.118084
1.66797,0.0764331
1.67188,0.183322
1.67578,0.185061
1.67969,0.184503
1.68359,0.188901
1.6875,0.0658428
1.69141,0.186253
1.69531,0.148702
1.69922,0.105533
1.70313,0.0908859
1.70703,0.245061
1.71094,0.125606
1.71484,0.134644
1.71875,0.247456
1.72266,0.306363
1.72656,0.244781
1.73047,0.29657
1.73438,0.201664
1.73828,0.376652
1.74219,0.308954
1.74609,0.351074
1.75,0.236012
1.75391,0.40292
1.75781,0.401634
1.76172,0.284931
1.76563,0.372803
1.76953,0.337598
1.77344,0.383977
1.77734,0.35428
1.78125,0.3549
1.78516,0.303027
1.78906,0.310696
1.79297,0.25438
1.79688,0.423706
1.80078,0.356807
1.80469,0.398502
1.80859,0.229798
1.8125,0.365983
1.81641,0.325231
1.82031,0.266461
1.82422,0.224066
1.82813,0.173261
1.83203,0.258585
1.83594,0.141305
1.83984,0.0968079
1.84375,0.226929
1.84766,0.198325
1.85156,0.198878
1.85547,0.177088
1.85938,0.126345
1.86328,0.115497
1.86719,0.196221
1.87109,0.092804
1.875,0.18902
1.87891,0.18094
1.88281,0.190455
1.88672,0.11711
1.89063,0.137381
1.89453,0.192176
1.89844,0.0792287
1.90234,-0.0132089
1.90625,0.128102
1.91016,0.0579884
1.91406,-0.0206506
1.91797,0.0874069
1.92188,-0.0799489
1.92578,0.0058573
1.92969,0.015077
1.93359,0.0137692
1.9375,0.0355411
1.94141,0.113175
1.94531,0.321936
1.94922,0.427422
1.95313,0.70414
1.95703,0.801907
1.96094,1.04001
1.96484,1.11783
1.96875,1.1273
1.97266,1.02789
1.97656,1.10223
1.98047,0.829465
1.98438,0.792606
1.98828,0.470991
1.99219,0.324366
1.99609,0.108762
2,0.0881276
2.00391,-0.102915
2.00781,-0.195709
2.01172,-0.0950335
2.01563,-0.178844
2.01953,-0.103735
2.02344,-0.131323
2.02734,-0.0461341
2.03125,-0.129231
2.03516,0.0830591
2.03906,0.0903014
2.04297,0.102478
2.04688,0.132797
2.05078,0.0580604
2.05469,0.111787
2.05859,0.108011
2.0625,0.102112
2.06641,0.0534435
2.07031,0.0500927
2.07422,0.0925822
2.07813,0.0498444
2.08203,0.167477
2.08594,0.206324
2.08984,0.0179187
2.09375,0.12221
2.09766,0.0360253
2.10156,0.18297
2.10547,0.224765
2.10938,0.0451847
2.11328,0.225041
2.11719,0.0467012
2.12109,0.186295
2.125,0.213311
2.12891,0.171037
2.13281,0.249559
2.13672,0.261215
2.14063,0.216183
2.14453,0.128802
2.14844,0.15566
2.15234,0.160015
2.15625,0.144023
2.16016,0.169663
2.16406,0.284672
2.16797,0.362857
2.17188,0.259721
2.17578,0.285146
2.17969,0.414277
2.18359,0.421012
2.1875,0.381754
2.19141,0.458523
2.19531,0.428428
2.19922,0.356219
2.20313,0.434657
2.20703,0.363671
2.21094,0.385834
2.21484,0.473786
2.21875,0.453356
2.22266,0.439061
2.22656,0.485055
2.23047,0.521162
2.23438,0.492965
2.23828,0.490416
2.24219,0.49911
2.24609,0.485582
2.25,0.398976
2.25391,0.523975
2.25781,0.575333
2.26172,0.441569
2.26563,0.558077
2.26953,0.424969
2.27344,0.523625
2.27734,0.426766
2.28125,0.406995
2.28516,0.355407
2.28906,0.323713
2.29297,0.346362
2.29688,0.415177
2.30078,0.411399
2.30469,0.378053
2.30859,0.225445
2.3125,0.376151
2.31641,0.375954
2.32031,0.329737
2.32422,0.16834
2.32813,0.220041
2.33203,0.270331
2.33594,0.261003
2.33984,0.146179
2.34375,0.141971
2.34766,0.210246
2.35156,0.159285
2.35547,0.177363
2.35938,0.0894393
2.36328,0.0678112
2.36719,0.189258
2.37109,0.168358
2.375,0.194206
2.37891,0.0219016
2.38281,0.0304377
2.38672,0.00810784
2.39063,0.0811336
2.39453,0.0172792
2.39844,0.153771
2.40234,-0.00916317
2.40625,-0.0233128
2.41016,0.0765324
2.41406,0.117153
2.41797,0.0229491
2.42188,-0.00544071
2.42578,0.0250195
2.42969,-0.00204177
2.43359,0.056869
2.4375,0.135205
2.44141,0.0789708
2.44531,-0.0271126
2.44922,0.0302674
2.45313,-0.0373601
2.45703,0.0516826
2.46094,0.0375557
2.46484,0.150574
2.46875,0.113289
2.47266,0.0480534
2.47656,0.129814
2.48047,-0.021523
2.48438,0.0290462
2.48828,0.136623
2.49219,0.134781
2.49609,0.0941462
2.5,0.0752624
2.50391,0.0204263
2.50781,0.139155
2.51172,-0.0229124
2.51563,0.0984342
2.51953,0.081795
2.52344,0.119308
2.52734,0.0325076
2.53125,0.102982
2.53516,0.120221
2.53906,0.0178204
2.54297,0.0639246
2.54688,0.149435
2.55078,0.0636018
2.55469,0.0199508
2.55859,0.0778834
2.5625,0.0262386
2.56641,0.105537
2.57031,0.0371434
2.57422,0.0529624
2.57813,0.0935716
2.58203,0.149297
2.58594,0.0204248
2.58984,0.122554
2.59375,0.102922
2.59766,0.146052
2.60156,-0.0382915
2.60547,0.0268026
2.60938,0.0880646
2.61328,0.0119421
2.61719,0.0018325
2.62109,0.0981057
2.625,0.0809331
2.62891,0.0742982
2.63281,0.088447
2.63672,-0.0339157
2.64063,0.0265818
2.64453,0.0473741
2.64844,0.0056184
2.65234,0.100869
2.65625,0.129654
2.66016,0.0154573
2.66406,0.106336
2.66797,-0.0110687
2.67188,0.130316
2.67578,-0.00731902
2.67969,0.0850508
2.68359,0.0436114
2.6875,0.135293
2.69141,0.0789183
2.69531,0.081035
2.69922,0.164289
2.70313,0.066158
2.70703,0.0930384
2.71094,0.20453
2.71484,0.0300863
2.71875,0.227105
2.72266,0.0822375
2.72656,0.190591
2.73047,0.187975
2.73438,0.219811
2.73828,0.171478
2.74219,0.237971
2.74609,0.290688
2.75,0.146467
2.75391,0.172846
2.75781,0.363441
2.76172,0.30974
2.76563,0.234977
2.76953,0.276739
2.77344,0.225598
2.77734,0.257723
2.78125,0.256047
2.78516,0.268823
2.78906,0.228551
2.79297,0.261014
2.79688,0.206902
2.80078,0.348621
2.80469,0.178205
2.80859,0.331592
2.8125,0.210671
2.81641,0.124953
2.82031,0.168217
2.82422,0.231188
2.82813,0.227451
2.83203,0.162524
2.83594,0.176527
2.83984,0.204621
2.84375,0.0244608
2.84766,0.0629215
2.85156,0.0012358
2.85547,0.0220236
2.85938,0.11897
2.86328,0.112357
2.86719,0.13765
2.87109,0.0735786
2.875,-0.0329938
2.87891,0.133779
2.88281,0.106011
2.88672,-0.000111746
2.89063,0.0481974
2.89453,0.132456
2.89844,0.0722861
2.90234,0.0871068
2.90625,-0.00787532
2.91016,-0.0181768
2.91406,-0.0212141
2.91797,-0.102636
2.92188,-0.0299491
2.92578,-0.0987713
2.92969,-0.0807039
2.93359,-0.144333
2.9375,-0.154407
2.94141,-0.0394917
2.94531,0.0129377
2.94922,0.20329
2.95313,0.335256
2.95703,0.468123
2.96094,0.527518
2.96484,0.668274
2.96875,0.9175
2.97266,0.96381
2.97656,1.13016
2.98047,1.11232
2.98438,0.884923
2.98828,0.847058
2.99219,0.691395
2.99609,0.448131
3,0.330599
3.00391,0.188145
3.00781,-0.0161279
3.01172,-0.0724007
3.01563,-0.161525
3.01953,-0.299424
3.02344,-0.217524
3.02734,-0.160461
3.03125,-0.15524
3.03516,-0.147922
3.03906,0.00264524
3.04297,0.0140164
3.04688,0.0447277
3.05078,-0.0301078
3.05469,0.0285006
3.05859,0.0937505
3.0625,0.111674
3.06641,0.0624884
3.07031,-0.0271931
3.07422,0.0642263
3.07813,-0.0503704
3.08203,0.0183774
3.08594,0.072453
3.08984,0.128122
3.09375,0.106133
3.09766,0.0437466
3.10156,0.101449
3.10547,0.0371745
3.10938,0.152227
3.11328,0.160042
3.11719,0.140359
3.12109,0.0509232
3.125,0.0702769
3.12891,0.0354411
3.13281,0.150379
3.13672,0.178075
3.14063,0.192904
3.14453,0.131129
3.14844,0.149214
3.15234,0.0698347
3.15625,0.231255
3.16016,0.153251
3.16406,0.116735
3.16797,0.268481
3.17188,0.254483
3.17578,0.292275
3.17969,0.186899
3.18359,0.278917
3.1875,0.291624
3.19141,0.197854
3.19531,0.269186
3.19922,0.256992
3.20313,0.359122
3.20703,0.285823
3.21094,0.421165
3.21484,0.4193
3.21875,0.34318
3.22266,0.374946
3.22656,0.423401
3.23047,0.459169
3.23438,0.420767
3.23828,0.418953
3.24219,0.372936
3.24609,0.401248
3.25,0.453441
3.25391,0.486748
3.25781,0.451688
3.26172,0.307367
3.26563,0.433233
3.26953,0.379096
3.27344,0.370606
3.27734,0.296774
3.28125,0.425447
3.28516,0.315583
3.28906,0.28705
3.29297,0.292761
3.29688,0.28512
3.30078,0.304526
3.30469,0.292425
3.30859,0.243736
3.3125,0.228547
3.31641,0.23627
3.32031,0.249008
3.32422,0.292121
3.32813,0.231071
3.33203,0.151601
3.33594,0.223353
3.33984,0.0697345
3.34375,0.0414256
3.34766,0.0333019
3.35156,0.0370795
3.35547,0.0577405
3.35938,0.0425783
3.36328,-0.0253641
3.36719,0.0710664
3.37109,-0.0263496
3.375,-0.0239421
3.37891,0.0658321
3.38281,0.104966
3.38672,0.122069
3.39063,0.0361159
3.39453,0.116613
3.39844,0.0237879
3.40234,0.0125162
3.40625,-0.0276207
3.41016,-0.0105023
3.41406,-0.000490744
3.41797,-0.0866399
3.42188,0.0750148
3.42578,-0.0910294
3.42969,-0.0179206
3.43359,0.0591709
3.4375,-0.0280565
3.44141,0.0150972
3.44531,0.0556553
3.44922,0.0688442
3.45313,0.0776207
3.45703,-0.0705262
3.46094,-0.056944
3.46484,0.0710265
3.46875,0.010318
3.47266,-0.007328
3.47656,0.0147784
3.48047,0.0564559
3.48438,-0.000664713
3.48828,-0.0662214
3.49219,-0.0154423
3.49609,-0.0202243
3.5,0.0878076
3.50391,0.0189987
3.50781,0.0344562
3.51172,0.0398022
3.51563,-0.0344604
3.51953,-4.96794e-005
3.52344,0.00828312
3.52734,-0.0713645
3.53125,0.0101401
3.53516,0.0370823
3.53906,-0.0161943
3.54297,0.066162
3.54688,0.0455788
3.55078,-0.0282985
3.55469,-0.00906802
3.55859,-0.0222379
3.5625,0.0559901
3.56641,0.048129
3.57031,-0.0122735
3.57422,0.0408183
3.57813,0.0915081
3.58203,0.0597104
3.58594,0.0443777
3.58984,-0.0744694
3.59375,-0.0179483
3.59766,0.0226495
3.60156,-0.00323528
3.60547,-0.0845972
3.60938,-0.0484698
3.61328,0.0730898
3.61719,-0.0901643
3.62109,0.0798972
3.625,-0.0767872
3.62891,0.0418537
3.63281,0.00854642
3.63672,-0.0474107
3.64063,0.0238464
3.64453,-0.0654368
3.64844,0.0450572
3.65234,0.0315677
3.65625,-0.0761642
3.66016,-0.0748978
3.66406,-0.0542262
3.66797,-0.0790672
3.67188,0.0061256
3.67578,0.0880111
3.67969,0.0479653
3.68359,0.032011
3.6875,0.104958
3.69141,-0.0432716
3.69531,0.124695
3.69922,-0.0284611
3.70313,0.0611887
3.70703,-0.00469696
3.71094,0.0884644
3.71484,-0.0115519
3.71875,0.152802
3.72266,0.182082
3.72656,0.209456
3.73047,0.238034
3.73438,0.156701
3.73828,0.125143
3.74219,0.10602
3.74609,0.201966
3.75,0.231262
3.75391,0.279392
3.75781,0.154739
3.76172,0.280194
3.76563,0.259145
3.76953,0.195744
3.77344,0.352718
3.77734,0.284053
3.78125,0.252443
3.78516,0.348607
3.78906,0.285036
3.79297,0.235791
3.79688,0.303034
3.80078,0.229703
3.80469,0.220703
3.80859,0.231645
3.8125,0.15406
3.81641,0.113098
3.82031,0.165643
3.82422,0.208213
3.82813,0.101723
3.83203,0.029166
3.83594,0.0825868
3.83984,0.0420481
3.84375,0.0515837
3.84766,0.128421
3.85156,0.0340721
3.85547,0.024107
3.85938,0.0119493
3.86328,-0.0373409
3.86719,-0.0177591
3.87109,-0.0560716
3.875,0.00933026
3.87891,-0.0279805
3.88281,-0.0229949
3.88672,-0.00129208
3.89063,-0.067476
3.89453,0.000639285
3.89844,0.0330412
3.90234,-0.0731073
3.90625,0.0169463
3.91016,-0.147481
3.91406,-0.107026
3.91797,-0.206447
3.92188,-0.177955
3.92578,-0.225539
3.92969,-0.174795
3.93359,-0.148877
3.9375,-0.061989
3.94141,0.0117383
3.94531,0.127202
3.94922,0.367627
3.95313,0.592983
3.95703,0.768646
3.96094,0.778688
3.96484,0.946831
3.96875,0.985876
3.97266,1.01141
3.97656,0.89097
3.98047,0.726642
3.98438,0.636511
3.98828,0.404029
3.99219,0.196928
3.99609,0.221989
4,-0.0163502
4.00391,-0.0103373
4.00781,-0.116496
4.01172,-0.302962
4.01563,-0.17702
4.01953,-0.158629
4.02344,-0.141865
4.02734,-0.122895
4.03125,-0.151499
4.03516,-0.00630523
4.03906,-0.0864729
4.04297,-0.0357442
4.04688,0.0839575
4.05078,0.087291
4.05469,0.00321266
4.05859,-0.00911505
4.0625,0.0521844
4.06641,0.114955
4.07031,0.116963
4.07422,0.0557697
4.07813,0.00648709
4.08203,0.113313
4.08594,0.0341888
4.08984,0.129921
4.09375,-0.0406037
4.09766,0.0633622
4.10156,0.104734
4.10547,0.00232884
4.10938,0.039318
4.11328,0.0156386
4.11719,0.049139
4.12109,0.0727721
4.125,0.109565
4.12891,0.0180859
4.13281,0.12803
4.13672,0.0822612
4.14063,0.086087
4.14453,0.0975665
4.14844,0.0915638
4.15234,0.264424
4.15625,0.273254
4.16016,0.26337
4.16406,0.259245
4.16797,0.163111
4.17188,0.214686
4.17578,0.195248
4.17969,0.172719
4.18359,0.250751
4.1875,0.342252
4.19141,0.34198
4.19531,0.33977
4.19922,0.332719
4.20313,0.315514
4.20703,0.370691
4.21094,0.434077
4.21484,0.444613
4.21875,0.41655
4.22266,0.458827
4.22656,0.445022
4.23047,0.345775
4.23438,0.425765
4.23828,0.396588
4.24219,0.34628
4.24609,0.356583
4.25,0.364255
4.25391,0.455114
4.25781,0.401329
4.26172,0.446717
4.26563,0.350603
4.26953,0.291358
4.27344,0.384918
4.27734,0.322433
4.28125,0.443066
4.28516,0.421679
4.28906,0.304928
4.29297,0.216916
4.29688,0.331455
4.30078,0.349606
4.30469,0.361365
4.30859,0.163335
4.3125,0.226986
4.31641,0.238568
4.32031,0.244824
4.32422,0.237156
4.32813,0.209481
4.33203,0.211563
4.33594,0.128228
4.33984,0.157689
4.34375,0.0532041
4.34766,0.0308673
4.35156,0.205442
4.35547,0.0574044
4.35938,0.111149
4.36328,0.17703
4.36719,0.014891
4.37109,0.0101414
4.375,0.0342867
4.37891,0.147555
4.38281,0.0346859
4.38672,0.00729965
4.39063,-0.0203561
4.39453,0.0257365
4.39844,0.0187494
4.40234,-0.0320836
4.40625,0.0269572
4.41016,-0.0431568
4.41406,0.0603627
4.41797,-0.0611953
4.42188,0.0506772
4.42578,0.0936022
4.42969,-0.017454
4.43359,0.0250493
4.4375,0.0494169
4.44141,-0.0519758
4.44531,0.0353116
4.44922,0.0649607
4.45313,-0.0186942
4.45703,0.105109
4.46094,0.132629
4.46484,0.108459
4.46875,0.0411936
4.47266,-0.00339715
4.47656,0.0909986
4.48047,-0.0100876
4.48438,0.134842
4.48828,0.0682621
4.49219,0.0650849
4.49609,-0.0196409
4.5,-0.0353038
4.50391,-0.00154772
4.50781,0.119875
4.51172,0.131127
4.51563,0.0895942
4.51953,0.0954661
4.52344,-0.00281805
4.52734,0.0671946
4.53125,0.114891
4.53516,0.0343147
4.53906,0.152014
4.54297,-0.0268976
4.54688,0.0200641
4.55078,0.0589266
4.55469,-0.03047
4.55859,0.103305
4.5625,0.0702322
4.56641,0.0655418
4.57031,0.126411
4.57422,0.132907
4.57813,0.119699
4.58203,0.026197
4.58594,0.0538092
4.58984,0.114553
4.59375,-0.0131771
4.59766,-0.012451
4.60156,0.0203362
4.60547,0.0720576
4.60938,0.162446
4.61328,0.110801
4.61719,0.0319169
4.62109,0.0286873
4.625,0.141353
4.62891,0.154554
4.63281,0.101095
4.63672,0.0254226
4.64063,-0.006689
4.64453,0.144615
4.64844,0.0954937
4.65234,0.170009
4.65625,-0.00525965
4.66016,0.101986
4.66406,0.0450532
4.66797,0.157083
4.67188,0.0338609
4.67578,0.0890069
4.67969,0.0847696
4.68359,0.17786
4.6875,0.155365
4.69141,0.0700207
4.69531,0.101735
4.69922,0.0755971
4.70313,0.194919
4.70703,0.187615
4.71094,0.121046
4.71484,0.131039
4.71875,0.21169
4.72266,0.313389
4.72656,0.257564
4.73047,0.168912
4.73438,0.18776
4.73828,0.351715
4.74219,0.293376
4.74609,0.290396
4.75,0.380662
4.75391,0.302344
4.75781,0.340431
4.76172,0.378375
4.76563,0.409966
4.76953,0.298569
4.77344,0.357568
4.77734,0.414708
4.78125,0.224961
4.78516,0.31547
4.78906,0.26782
4.79297,0.232902
4.79688,0.209274
4.80078,0.293409
4.80469,0.325845
4.80859,0.149511
4.8125,0.25429
4.81641,0.123744
4.82031,0.270394
4.82422,0.220655
4.82813,0.134365
4.83203,0.18571
4.83594,0.131158
4.83984,0.185968
4.84375,0.0892448
4.84766,0.0273259
4.85156,0.126535
4.85547,0.186859
4.85938,0.0406832
4.86328,0.0858385
4.86719,0.14656
4.87109,0.00136121
4.875,0.178647
4.87891,0.136031
4.88281,0.08531
4.88672,-0.00391944
4.89063,0.0403078
4.89453,0.022401
4.89844,0.0945136
4.90234,0.045098
4.90625,0.0475655
4.91016,-0.0176808
4.91406,-0.0611277
4.91797,0.083618
4.92188,0.0613011
4.92578,0.111307
4.92969,0.271855
4.93359,0.483611
4.9375,0.617813
4.94141,0.822506
4.94531,1.02079
4.94922,1.12648
4.95313,1.09652
4.95703,1.17217
4.96094,0.927646
4.96484,0.785747
4.96875,0.670845
4.97266,0.545125
4.97656,0.358127
4.98047,0.273125
4.98438,0.0696325
4.98828,-0.0509124
4.99219,-0.0941356
4.99609,-0.0941018
5,-0.239782
5.00391,-0.0679557
5.00781,-0.170149
5.01172,-0.0661686
5.01563,-0.0724668
5.01953,-0.0152605
5.02344,0.0716488
5.02734,-0.00504795
5.03125,0.0326944
5.03516,0.027598
5.03906,0.0341517
5.04297,0.0650387
5.04688,0.17892
5.05078,0.0997529
5.05469,0.0887413
5.05859,0.0461676
5.0625,0.206611
5.06641,0.0970714
5.07031,0.187548
5.07422,0.145117
5.07813,0.101118
5.08203,0.205372
5.08594,0.19148
5.08984,0.132542
5.09375,0.207891
5.09766,0.230862
5.10156,0.143659
5.10547,0.131904
5.10938,0.192206
5.11328,0.261747
5.11719,0.230879
5.12109,0.175723
5.125,0.257644
5.12891,0.312543
5.13281,0.241987
5.13672,0.253755
5.14063,0.220835
5.14453,0.186262
5.14844,0.22228
5.15234,0.218749
5.15625,0.307436
5.16016,0.231424
5.16406,0.427514
5.16797,0.388032
5.17188,0.274646
5.17578,0.295092
5.17969,0.345031
5.18359,0.408218
5.1875,0.355967
5.19141,0.344781
5.19531,0.500115
5.19922,0.436155
5.20313,0.530926
5.20703,0.470446
5.21094,0.477393
5.21484,0.405508
5.21875,0.409733
5.22266,0.420681
5.22656,0.522404
5.23047,0.451412
5.23438,0.569525
5.23828,0.569217
5.24219,0.585498
5.24609,0.483958
5.25,0.422148
5.25391,0.4139
5.25781,0.465403
5.26172,0.498818
5.26563,0.403365
5.26953,0.412794
5.27344,0.434481
5.27734,0.475652
5.28125,0.309687
5.28516,0.405422
5.28906,0.362612
5.29297,0.318444
5.29688,0.393404
5.30078,0.280084
5.30469,0.222422
5.30859,0.298768
5.3125,0.282775
5.31641,0.209911
5.32031,0.291806
5.32422,0.318605
5.32813,0.303065
5.33203,0.121155
5.33594,0.13184
5.33984,0.0805396
5.34375,0.188467
5.34766,0.0810317
5.35156,0.132949
5.35547,0.22153
5.35938,0.148244
5.36328,0.106936
5.36719,0.0699094
5.37109,0.112089
5.375,0.211324
5.37891,0.0415651
5.38281,0.108045
5.38672,0.182825
5.39063,0.0180621
5.39453,0.145995
5.39844,0.202062
5.40234,0.061782
5.40625,0.0309759
5.41016,0.140558
5.41406,0.18485
5.41797,0.124752
5.42188,0.182343
5.42578,0.040938
5.42969,0.153165
5.43359,0.0716718
5.4375,0.0863836
5.44141,0.0341279
5.44531,0.167184
5.44922,0.12883
5.45313,0.152068
5.45703,0.165927
5.46094,0.0189236
5.46484,0.196225
5.46875,0.106171
5.47266,0.158263
5.47656,0.156273
5.48047,0.174568
5.48438,0.0401883
5.48828,0.100892
5.49219,0.133588
5.49609,0.196939
5.5,0.17805
5.50391,0.190643
5.50781,0.128585
5.51172,0.129149
5.51563,0.1841
5.51953,0.0205984
5.52344,0.191216
5.52734,0.0961816
5.53125,0.0224111
5.53516,0.16486
5.53906,0.0470876
5.54297,0.0453914
5.54688,0.138286
5.55078,0.0684703
5.55469,0.0828837
5.55859,0.0988883
5.5625,0.100279
5.56641,0.0967111
5.57031,0.141897
5.57422,0.0537734
5.57813,0.058468
5.58203,0.040227
5.58594,0.0863895
5.58984,0.176125
5.59375,0.0694889
5.59766,0.171208
5.60156,0.162184
5.60547,0.188943
5.60938,0.190256
5.61328,0.0839034
5.61719,0.0877226
5.62109,0.131143
5.625,0.0923794
5.62891,0.194596
5.63281,0.191356
5.63672,0.141972
5.64063,0.084697
5.64453,0.170061
5.64844,0.0828977
5.65234,0.130115
5.65625,0.118926
5.66016,0.153517
5.66406,0.24861
5.66797,0.206571
5.67188,0.25776
5.67578,0.11574
5.67969,0.182611
5.68359,0.0963575
5.6875,0.247696
5.69141,0.228027
5.69531,0.291378
5.69922,0.330815
5.70313,0.333035
5.70703,0.243601
5.71094,0.176686
5.71484,0.299812
5.71875,0.247996
5.72266,0.264572
5.72656,0.299278
5.73047,0.265545
5.73438,0.406557
5.73828,0.415586
5.74219,0.381264
5.74609,0.344649
5.75,0.445486
5.75391,0.389052
5.75781,0.467096
5.76172,0.448809
5.76563,0.333944
5.76953,0.362277
5.77344,0.310887
5.77734,0.353089
5.78125,0.373656
5.78516,0.348529
5.78906,0.209064
5.79297,0.33294
5.79688,0.158182
5.80078,0.221164
5.80469,0.270332
5.80859,0.266917
5.8125,0.171649
5.81641,0.235773
5.82031,0.25498
5.82422,0.115921
5.82813,0.0853128
5.83203,0.0974575
5.83594,0.116535
5.83984,0.0989999
5.84375,0.22296
5.84766,0.0442357
5.85156,0.149392
5.85547,0.0603815
5.85938,0.192166
5.86328,0.0543124
5.86719,0.115466
5.87109,0.205557
5.875,0.0631604
5.87891,-0.0163588
5.88281,-0.00434545
5.88672,0.00928202
5.89063,-0.0263665
5.89453,-0.0662525
5.89844,0.0656974
5.90234,0.0215858
5.90625,0.104767
5.91016,0.0523333
5.91406,0.233259
5.91797,0.15698
5.92188,0.418836
5.92578,0.617731
5.92969,0.670295
5.93359,0.966199
5.9375,1.06129
5.94141,1.1576
5.94531,1.12668
5.94922,1.12218
5.95313,0.924163
5.95703,0.754576
5.96094,0.597046
5.96484,0.46814
5.96875,0.345956
5.97266,0.0900635
5.97656,-0.00649733
5.98047,-0.00137995
5.98438,-0.105022
5.98828,-0.0536632
5.99219,-0.209959
5.99609,-0.0650948
6,-0.0632694
6.00391,-0.111478
6.00781,-0.0291417
6.01172,-0.0114357
6.01563,0.055618
6.01953,0.116134
6.02344,-0.00871766
6.02734,0.144132
6.03125,0.15427
6.03516,0.0608981
6.03906,0.0785971
6.04297,0.108971
6.04688,0.136498
6.05078,0.146828
6.05469,0.152228
6.05859,0.0810422
6.0625,0.0917392
6.06641,0.200102
6.07031,0.126732
6.07422,0.185774
6.07813,0.0752086
6.08203,0.148967
6.08594,0.147221
6.08984,0.227802
6.09375,0.0583917
6.09766,0.147985
6.10156,0.159471
6.10547,0.0810561
6.10938,0.25245
6.11328,0.257529
6.11719,0.17823
6.12109,0.257202
6.125,0.141607
6.12891,0.247541
6.13281,0.187942
6.13672,0.237721
6.14063,0.330644
6.14453,0.214758
6.14844,0.250308
6.15234,0.300483
6.15625,0.285849
6.16016,0.392519
6.16406,0.444819
6.16797,0.29349
6.17188,0.323195
6.17578,0.430031
6.17969,0.37792
6.18359,0.510144
6.1875,0.521649
6.19141,0.466801
6.19531,0.519933
6.19922,0.437022
6.20313,0.490556
6.20703,0.567457
6.21094,0.487192
6.21484,0.565492
6.21875,0.524864
6.22266,0.478131
6.22656,0.50814
6.23047,0.555337
6.23438,0.413394
6.23828,0.446939
6.24219,0.559034
6.24609,0.43245
6.25,0.473906
6.25391,0.51146
6.25781,0.518345
6.26172,0.437123
6.26563,0.314658
6.26953,0.286048
6.27344,0.387782
6.27734,0.362525
6.28125,0.426118
6.28516,0.367377
6.28906,0.334989
6.29297,0.291475
6.29688,0.223208
6.30078,0.348226
6.30469,0.248736
6.30859,0.13197
6.3125,0.250837
6.31641,0.20169
6.32031,0.0963182
6.32422,0.24995
6.32813,0.12615
6.33203,0.0950013
6.33594,0.0615592
6.33984,0.0913959
6.34375,0.0660501
6.34766,0.142602
6.35156,0.017936
6.35547,0.0529285
6.35938,0.0479555
6.36328,0.161938
6.36719,0.0696808
6.37109,0.127416
6.375,0.09281
6.37891,0.125191
6.38281,-0.0118499
6.38672,0.15831
6.39063,0.129926
6.39453,-0.0317119
6.39844,0.0496602
6.40234,0.0200863
6.40625,0.0797721
6.41016,-0.00122984
6.41406,0.0678337
6.41797,0.0717681
6.42188,0.0705175
6.42578,0.0397473
6.42969,-0.0432292
6.43359,0.0521678
6.4375,0.0307539
6.44141,-0.0293049
6.44531,0.0410049
6.44922,0.0392074
6.45313,0.0593089
6.45703,0.110253
6.46094,0.0894668
6.46484,0.123895
6.46875,-0.0399421
6.47266,-0.00625931
6.47656,0.0419256
6.48047,0.141899
6.48438,0.108394
6.48828,0.0409444
6.49219,0.0174313
6.49609,-0.0372613
6.5,0.0992728
6.50391,0.0526204
6.50781,-0.00858601
6.51172,0.0370324
6.51563,-0.0145063
6.51953,0.102254
6.52344,0.025741
6.52734,0.140588
6.53125,-0.0441912
6.53516,0.118333
6.53906,0.0779842
6.54297,0.0605571
6.54688,0.0830485
6.55078,0.0984098
6.55469,-0.0278837
6.55859,0.128866
6.5625,-0.0436445
6.56641,0.0124739
6.57031,-0.010274
6.57422,0.139131
6.57813,-0.0323622
6.58203,0.0703505
6.58594,0.0816934
6.58984,0.0846502
6.59375,0.127457
6.59766,-0.0341247
6.60156,0.118221
6.60547,0.0608117
6.60938,0.0940887
6.61328,-0.00208748
6.61719,0.0643338
6.62109,0.0964781
6.625,0.147628
6.62891,0.0457133
6.63281,-0.0255249
6.63672,-0.030384
6.64063,0.0849918
6.64453,0.119537
6.64844,0.100031
6.65234,0.0326518
6.65625,0.155154
6.66016,0.0725526
6.66406,0.162634
6.66797,-0.00932681
6.67188,0.0222505
6.67578,0.141613
6.67969,0.176135
6.68359,0.157463
6.6875,0.0687061
6.69141,0.0496163
6.69531,0.199477
6.69922,0.198496
6.70313,0.108275
6.70703,0.113122
6.71094,0.145874
6.71484,0.262109
6.71875,0.275325
6.72266,0.239618
6.72656,0.254063
6.73047,0.210448
6.73438,0.305649
6.73828,0.336367
6.74219,0.275113
6.74609,0.283789
6.75,0.293305
6.75391,0.259326
6.75781,0.339554
6.76172,0.383747
6.76563,0.380851
6.76953,0.342394
6.77344,0.236689
6.77734,0.312174
6.78125,0.188567
6.78516,0.173478
6.78906,0.172443
6.79297,0.148139
6.79688,0.220332
6.80078,0.102247
6.80469,0.236493
6.80859,0.201508
6.8125,0.227653
6.81641,0.127386
6.82031,0.147169
6.82422,0.182603
6.82813,0.101779
6.83203,0.0411067
6.83594,0.171481
6.83984,-0.0237137
6.84375,0.028049
6.84766,0.15222
6.85156,0.0263207
6.85547,0.011517
6.85938,-0.0293553
6.86328,0.126451
6.86719,-0.0331181
6.87109,0.00187224
6.875,0.109333
6.87891,0.0218337
6.88281,0.0332284
6.88672,0.0106656
6.89063,0.0134819
6.89453,-0.143344
6.89844,-0.0673447
6.90234,-0.18791
6.90625,-0.0436059
6.91016,-0.142757
6.91406,-0.024687
6.91797,-0.105278
6.92188,0.0274369
6.92578,0.19259
6.92969,0.138
6.93359,0.289729
6.9375,0.44826
6.94141,0.745443
6.94531,0.877733
6.94922,0.896505
6.95313,1.0974
6.95703,1.06004
6.96094,0.885916
6.96484,0.768382
6.96875,0.625012
6.97266,0.576126
6.97656,0.254447
6.98047,0.115325
6.98438,-0.0287415
6.98828,-0.172626
6.99219,-0.105948
6.99609,-0.190049
7,-0.206108
7.00391,-0.221097
7.00781,-0.228337
7.01172,-0.235426
7.01563,-0.131929
7.01953,-0.203618
7.02344,-0.163536
7.02734,-0.161138
7.03125,0.048807
7.03516,0.0652465
7.03906,-0.0934232
7.04297,-0.0175595
7.04688,0.0249691
7.05078,-0.0452603
7.05469,0.0498506
7.05859,0.0125837
7.0625,-0.0114774
7.06641,-0.0415146
7.07031,0.0580377
7.07422,0.0894428
7.07813,0.0582266
7.08203,-0.00298375
7.08594,0.106805
7.08984,-0.0258748
7.09375,0.0339902
7.09766,0.123055
7.10156,-0.00913244
7.10547,-0.00693746
7.10938,0.134859
7.11328,-0.0300974
7.11719,0.0235341
7.12109,0.0900622
7.125,0.02113
7.12891,0.117008
7.13281,0.159498
7.13672,0.110777
7.14063,0.151814
7.14453,0.192635
7.14844,0.0924546
7.15234,0.178788
7.15625,0.0944109
7.16016,0.188774
7.16406,0.267236
7.16797,0.298185
7.17188,0.228239
7.17578,0.198763
7.17969,0.288351
7.18359,0.355752
7.1875,0.288426
7.19141,0.39507
7.19531,0.252956
7.19922,0.248393
7.20313,0.297564
7.20703,0.328494
7.21094,0.343559
7.21484,0.330884
7.21875,0.415429
7.22266,0.301905
7.22656,0.369531
7.23047,0.352359
7.23438,0.357378
7.23828,0.318435
7.24219,0.415826
7.24609,0.351857
7.25,0.323149
7.25391,0.28761
7.25781,0.338196
7.26172,0.384319
7.26563,0.43976
7.26953,0.264267
7.27344,0.425891
7.27734,0.259254
7.28125,0.386996
7.28516,0.366718
7.28906,0.375872
7.29297,0.204847
7.29688,0.262971
7.30078,0.227343
7.30469,0.165226
7.30859,0.229699
7.3125,0.220139
7.31641,0.126171
7.32031,0.171905
7.32422,0.250732
7.32813,0.136269
7.33203,0.163138
7.33594,0.0928699
7.33984,0.00455894
7.34375,0.0438252
7.34766,0.133872
7.35156,0.0319014
7.35547,-0.031012
7.35938,0.0449809
7.36328,0.00726769
7.36719,0.0736312
7.37109,0.0231875
7.375,0.0723003
7.37891,0.0685822
7.38281,-0.0624929
7.38672,-0.0806651
7.39063,0.0543124
7.39453,0.0137068
7.39844,-0.114172
7.40234,0.0587007
7.40625,-0.0201133
7.41016,-0.016617
7.41406,-0.00623141
7.41797,0.0228745
7.42188,0.0404415
7.42578,-0.0552183
7.42969,-0.115801
7.43359,0.0133059
7.4375,-0.0676311
7.44141,0.0335162
7.44531,-0.0603592
7.44922,0.0307839
7.45313,-0.0996147
7.45703,-0.108974
7.46094,0.0412446
7.46484,-0.125679
7.46875,0.00316279
7.47266,0.0129509
7.47656,-0.0459399
7.48047,-0.0569366
7.48438,0.0635278
7.48828,-0.0520824
7.49219,-0.0433071
7.49609,-0.0994393
7.5,-0.0650491
7.50391,-0.0669022
7.50781,0.0497197
7.51172,-0.0792515
7.51563,-0.066008
7.51953,-0.0458699
7.52344,0.0144467
7.52734,-0.0979503
7.53125,0.0480562
7.53516,-0.109112
7.53906,-0.0329308
7.54297,-0.11873
7.54688,0.026315
7.55078,0.0161909
7.55469,-0.0803864
7.55859,0.0132346
7.5625,-0.0107387
7.56641,0.0484882
7.57031,-0.00938944
7.57422,0.0597883
7.57813,-0.0361391
7.58203,-0.0479082
7.58594,-0.0212442
7.58984,-0.0673744
7.59375,0.0677245
7.59766,-0.024317
7.60156,-0.0664402
7.60547,-0.0305834
7.60938,0.0240854
7.61328,-0.035552
7.61719,-0.0792457
7.62109,0.0560485
7.625,0.00206543
7.62891,-0.0396093
7.63281,-0.0695047
7.63672,-0.0695219
7.64063,-0.00829929
7.64453,-0.0254227
7.64844,0.0368679
7.65234,-0.0964994
7.65625,0.0597842
7.66016,0.0273186
7.66406,-0.0801679
7.66797,0.0654927
7.67188,-0.0647096
7.67578,0.0185838
7.67969,0.00787642
7.68359,-0.0656803
7.6875,-0.0939176
7.69141,0.0629269
7.69531,0.065916
7.69922,0.0022182
7.70313,-0.0648053
7.70703,0.0476532
7.71094,-0.0270896
7.71484,0.0923385
7.71875,0.0630282
7.72266,0.0174075
7.72656,0.161909
7.73047,0.142805
7.73438,0.182064
7.73828,0.0325723
7.74219,0.0701569
7.74609,0.19579
7.75,0.202711
7.75391,0.233592
7.75781,0.192978
7.76172,0.191408
7.76563,0.241281
7.76953,0.301617
7.77344,0.274427
7.77734,0.252821
7.78125,0.213531
7.78516,0.297973
7.78906,0.234584
7.79297,0.270532
7.79688,0.33098
7.80078,0.316172
7.80469,0.319409
7.80859,0.317594
7.8125,0.281336
7.81641,0.105574
7.82031,0.0919098
7.82422,0.0940606
7.82813,0.113539
7.83203,0.0506453
7.83594,0.115744
7.83984,0.0843782
7.84375,0.11028
7.84766,0.173867
7.85156,0.035871
7.85547,0.0323392
7.85938,0.126244
7.86328,0.013153
7.86719,-0.0357242
7.87109,0.0307732
7.875,0.0941911
7.87891,-0.00551905
7.88281,0.0525638
7.88672,0.0357094
7.89063,-0.00243863
7.89453,-0.000119241
7.89844,0.0926661
7.90234,-0.083628
7.90625,-0.0486387
7.91016,-0.0213994
7.91406,-0.0021874
7.91797,0.0434363
7.92188,-0.0547048
7.92578,-0.0813307
7.92969,-0.0424416
7.93359,-0.121161
7.9375,-0.0623751
7.94141,-0.153207
7.94531,-0.14626
7.94922,-0.129893
7.95313,-0.139401
7.95703,-0.0990387
7.96094,-0.00525282
7.96484,0.283587
7.96875,0.301079
7.97266,0.594142
7.97656,0.73472
7.98047,0.919168
7.98438,1.04865
7.98828,0.956297
7.99219,1.01611
7.99609,1.079
8,0.897642
8.00391,0.793305
8.00781,0.534986
8.01172,0.261934
8.01563,0.214454
8.01953,-0.011578
8.02344,-0.0699896
8.02734,-0.115422
8.03125,-0.192561
8.03516,-0.221392
8.03906,-0.252745
8.04297,-0.271495
8.04688,-0.202379
8.05078,-0.248432
8.05469,-0.0911201
8.05859,0.0129069
8.0625,-0.130967
8.06641,-0.120886
8.07031,0.064866
8.07422,-0.0524869
8.07813,-0.092858
8.08203,0.0732317
8.08594,-0.0582408
8.08984,0.0922555
8.09375,-0.0623047
8.09766,-0.00849617
8.10156,0.042217
8.10547,0.0432699
8.10938,0.0627203
8.11328,0.0620385
8.11719,0.0226901
8.12109,-0.0320805
8.125,0.0947067
8.12891,-0.00253507
8.13281,0.0844514
8.13672,0.131582
8.14063,-0.0167464
8.14453,0.167621
8.14844,-0.0131178
8.15234,0.15565
8.15625,0.164308
8.16016,0.0163664
8.16406,0.125444
8.16797,0.215415
8.17188,0.102221
8.17578,0.210978
8.17969,0.18231
8.18359,0.232849
8.1875,0.248162
8.19141,0.11209
8.19531,0.173059
8.19922,0.26167
8.20313,0.243706
8.20703,0.355298
8.21094,0.325466
8.21484,0.304339
8.21875,0.265395
8.22266,0.271353
8.22656,0.411546
8.23047,0.33715
8.23438,0.423883
8.23828,0.292478
8.24219,0.455977
8.24609,0.299854
8.25,0.483358
8.25391,0.491548
8.25781,0.423167
8.26172,0.347839
8.26563,0.363404
8.26953,0.471632
8.27344,0.497715
8.27734,0.337925
8.28125,0.480551
8.28516,0.516976
8.28906,0.389289
8.29297,0.442167
8.29688,0.375627
8.30078,0.341598
8.30469,0.44567
8.30859,0.422106
8.3125,0.321339
8.31641,0.369267
8.32031,0.323424
8.32422,0.243431
8.32813,0.215092
8.33203,0.293393
8.33594,0.235445
8.33984,0.232268
8.34375,0.206366
8.34766,0.167805
8.35156,0.198418
8.35547,0.24334
8.35938,0.130176
8.36328,0.208797
8.36719,0.150758
8.37109,0.135995
8.375,0.0721994
8.37891,0.0642678
8.38281,0.138076
8.38672,0.0584642
8.39063,0.107185
8.39453,0.17551
8.39844,0.121459
8.40234,0.107111
8.40625,0.15651
8.41016,0.113697
8.41406,0.0747923
8.41797,0.138056
8.42188,-0.0438555
8.42578,-0.00576631
8.42969,0.13458
8.43359,0.0888798
8.4375,0.0271119
8.44141,0.0661986
8.44531,0.0117268
8.44922,0.00300397
8.45313,-0.0314535
8.45703,0.00165451
8.46094,-0.0695954
8.46484,0.0185439
8.46875,-0.00945681
8.47266,0.118984
8.47656,0.0349869
8.48047,0.0933578
8.48438,0.00602572
8.48828,0.0172687
8.49219,0.0906942
8.49609,0.124337
8.5,0.0316279
8.50391,0.112729
8.50781,0.0762953
8.51172,0.0428593
8.51563,0.124032
8.51953,0.096091
8.52344,0.12403
8.52734,0.0622887
8.53125,0.00983556
8.53516,0.0301229
8.53906,0.118056
8.54297,-0.0604978
8.54688,-0.0312933
8.55078,0.0325039
8.55469,0.0476008
8.55859,-0.0482518
8.5625,0.0722261
8.56641,0.119368
8.57031,-0.0357992
8.57422,0.0306665
8.57813,-2.40861e-006
8.58203,0.141841
8.58594,0.0673812
8.58984,-0.00278593
8.59375,-0.0261826
8.59766,0.0571202
8.60156,0.114499
8.60547,0.117151
8.60938,0.117225
8.61328,-0.00790314
8.61719,0.06103
8.62109,0.127922
8.625,-0.0220829
8.62891,0.125767
8.63281,0.135231
8.63672,-0.000371382
8.64063,-0.0277664
8.64453,0.0524682
8.64844,0.125426
8.65234,0.0531057
8.65625,0.0428018
8.66016,0.0614358
8.66406,-0.0131649
8.66797,-0.0109092
8.67188,0.137646
8.67578,0.0850934
8.67969,0.0185683
8.68359,0.139549
8.6875,-0.0206113
8.69141,0.0606201
8.69531,0.114972
8.69922,0.0399904
8.70313,0.0543409
8.70703,0.0816991
8.71094,0.157716
8.71484,0.137534
8.71875,-0.000771759
8.72266,0.045184
8.72656,0.0700395
8.73047,0.172592
8.73438,0.0899283
8.73828,0.061078
8.74219,0.140779
8.74609,0.126312
8.75,0.220383
8.75391,0.238905
8.75781,0.227831
8.76172,0.219244
8.76563,0.240116
8.76953,0.286074
8.77344,0.134304
8.77734,0.203803
8.78125,0.152839
8.78516,0.332669
8.78906,0.283082
8.79297,0.26845
8.79688,0.252895
8.80078,0.325309
8.80469,0.285188
8.80859,0.247881
8.8125,0.255931
8.81641,0.255041
8.82031,0.323422
8.82422,0.263861
8.82813,0.323194
8.83203,0.407543
8.83594,0.289554
8.83984,0.232156
8.84375,0.309781
8.84766,0.357657
8.85156,0.23821
8.85547,0.162165
8.85938,0.167251
8.86328,0.139087
8.86719,0.257097
8.87109,0.186002
8.875,0.214764
8.87891,0.208301
8.88281,0.171062
8.88672,0.171928
8.89063,0.212237
8.89453,0.160757
8.89844,0.196061
8.90234,0.108217
8.90625,0.0376843
8.91016,0.0186158
8.91406,0.144147
8.91797,0.0597874
8.92188,0.12971
8.92578,0.123476
8.92969,0.0965867
8.93359,0.129691
8.9375,0.0819591
8.94141,0.0702436
8.94531,0.0606155
8.94922,0.132998
8.95313,0.00451472
8.95703,-0.072493
8.96094,-0.0711512
8.96484,-0.00268678
8.96875,0.0148048
8.97266,0.0393934
8.97656,-0.0961122
8.98047,0.0500889
8.98438,0.0782873
8.98828,0.134754
8.99219,0.277638
8.99609,0.421056
9,0.615976
9.00391,0.807261
9.00781,0.878583
9.01172,0.959604
9.01563,1.1782
9.01953,1.10115
9.02344,1.12557
9.02734,0.895882
9.03125,0.726568
9.03516,0.707512
9.03906,0.521363
9.04297,0.379474
9.04688,0.210822
9.05078,-0.0646921
9.05469,-0.0396474
9.05859,0.00688843
9.0625,-0.10552
9.06641,-0.0244595
9.07031,-0.159695
9.07422,0.0587836
9.07813,0.083895
9.08203,0.0482657
9.08594,0.052053
9.08984,0.0571053
9.09375,0.151336
9.09766,0.0222018
9.10156,0.102222
9.10547,0.216879
9.10938,0.145084
9.11328,0.133253
9.11719,0.140073
9.12109,0.104759
9.125,0.235457
9.12891,0.244261
9.13281,0.153431
9.13672,0.252386
9.14063,0.148539
9.14453,0.146468
9.14844,0.108216
9.15234,0.108994
9.15625,0.242157
9.16016,0.22672
9.16406,0.193683
9.16797,0.26047
9.17188,0.204552
9.17578,0.220726
9.17969,0.161798
9.18359,0.246176
9.1875,0.167297
9.19141,0.159978
9.19531,0.297621
9.19922,0.294709
9.20313,0.229543
9.20703,0.280014
9.21094,0.338365
9.21484,0.337486
9.21875,0.266369
9.22266,0.289416
9.22656,0.270658
9.23047,0.368998
9.23438,0.397865
9.23828,0.346714
9.24219,0.462325
9.24609,0.346281
9.25,0.379776
9.25391,0.5587
9.25781,0.575056
9.26172,0.396744
9.26563,0.498973
9.26953,0.581232
9.27344,0.464508
9.27734,0.588687
9.28125,0.589011
9.28516,0.555013
9.28906,0.430979
9.29297,0.506185
9.29688,0.609264
9.30078,0.561072
9.30469,0.495916
9.30859,0.540282
9.3125,0.454941
9.31641,0.511697
9.32031,0.583702
9.32422,0.546139
9.32813,0.420738
9.33203,0.487494
9.33594,0.408798
9.33984,0.520069
9.34375,0.324456
9.34766,0.342296
9.35156,0.438824
9.35547,0.277652
9.35938,0.351281
9.36328,0.389634
9.36719,0.362086
9.37109,0.227834
9.375,0.272703
9.37891,0.241335
9.38281,0.253663
9.38672,0.262768
9.39063,0.162433
9.39453,0.303016
9.39844,0.239386
9.40234,0.134064
9.40625,0.205527
9.41016,0.270275
9.41406,0.232906
9.41797,0.206464
9.42188,0.15629
9.42578,0.109473
9.42969,0.166223
9.43359,0.0976286
9.4375,0.107764
9.44141,0.222588
9.44531,0.214449
9.44922,0.193715
9.45313,0.217727
9.45703,0.066442
9.46094,0.132598
9.46484,0.153183
9.46875,0.209356
9.47266,0.158669
9.47656,0.103061
9.48047,0.17274
9.48438,0.187928
9.48828,0.14426
9.49219,0.0410886
9.49609,0.208552
9.5,0.0348698
9.50391,0.129692
9.50781,0.0482723
9.51172,0.100821
9.51563,0.18771
9.51953,0.0743616
9.52344,0.202862
9.52734,0.168966
9.53125,0.10254
9.53516,0.0771761
9.53906,0.0784448
9.54297,0.1818
9.54688,0.038791
9.55078,0.166332
9.55469,0.153773
9.55859,0.179483
9.5625,0.226015
9.56641,0.107754
9.57031,0.0834153
9.57422,0.207271
9.57813,0.193404
9.58203,0.124817
9.58594,0.0511903
9.58984,0.146254
9.59375,0.0712757
9.59766,0.140531
9.60156,0.105589
9.60547,0.0979234
9.60938,0.180694
9.61328,0.138874
9.61719,0.194217
9.62109,0.0773504
9.625,0.172433
9.62891,0.0476656
9.63281,0.197757
9.63672,0.173589
9.64063,0.22743
9.64453,0.056893
9.64844,0.220625
9.65234,0.141289
9.65625,0.162646
9.66016,0.103254
9.66406,0.0559226
9.66797,0.21095
9.67188,0.0701626
9.67578,0.115821
9.67969,0.166719
9.68359,0.242338
9.6875,0.146978
9.69141,0.242416
9.69531,0.0905821
9.69922,0.126035
9.70313,0.187155
9.70703,0.0624864
9.71094,0.201183
9.71484,0.138272
9.71875,0.219524
9.72266,0.136864
9.72656,0.129143
9.73047,0.26771
9.73438,0.220167
9.73828,0.166166
9.74219,0.111294
9.74609,0.247598
9.75,0.238348
9.75391,0.136908
9.75781,0.158481
9.76172,0.343825
9.76563,0.260746
9.76953,0.180339
9.77344,0.201614
9.77734,0.234183
9.78125,0.399599
9.78516,0.328301
9.78906,0.360523
9.79297,0.359123
9.79688,0.284057
9.80078,0.458449
9.80469,0.343008
9.80859,0.343278
9.8125,0.410162
9.81641,0.385957
9.82031,0.361469
9.82422,0.413523
9.82813,0.462178
9.83203,0.388433
9.83594,0.308862
9.83984,0.279848
9.84375,0.312133
9.84766,0.214593
9.85156,0.368895
9.85547,0.300167
9.85938,0.2036
9.86328,0.252069
9.86719,0.144722
9.87109,0.293095
9.875,0.196901
9.87891,0.206621
9.88281,0.200204
9.88672,0.213853
9.89063,0.144111
9.89453,0.0786172
9.89844,0.148372
9.90234,0.0616806
9.90625,0.195499
9.91016,0.0518238
9.91406,0.231906
9.91797,0.186473
9.92188,0.222023
9.92578,0.132652
9.92969,0.0716694
9.93359,0.0661114
9.9375,0.152856
9.94141,0.182312
9.94531,0.0336482
9.94922,0.0892873
9.95313,-0.0622373
9.95703,0.0169315
9.96094,-0.0245327
9.96484,0.0427081
9.96875,-0.0228134
9.97266,-0.000806205
9.97656,0.155393
9.98047,0.307716
9.98438,0.347039
9.98828,0.572769
9.99219,0.784853
9.99609,0.978085
10,0.996655
10.0039,1.08622
10.0078,1.1922
10.0117,1.10077
10.0156,0.893475
10.0195,0.83771
10.0234,0.564589
10.0273,0.382282
10.0313,0.163374
10.0352,0.0981832
10.0391,0.00373656
10.043,-0.0958205
10.0469,-0.13913
10.0508,-0.160882
10.0547,-0.01118
10.0586,0.000388679
10.0625,-0.0566787
10.0664,-0.00263587
10.0703,0.0493005
10.0742,0.0631261
10.0781,0.0409025
10.082,0.200539
10.0859,0.0500979
10.0898,0.192726
10.0938,0.0312856
10.0977,0.0938551
10.1016,0.179196
10.1055,0.160168
10.1094,0.0669804
10.1133,0.225526
10.1172,0.145906
10.1211,0.0899952
10.125,0.158235
10.1289,0.228802
10.1328,0.228403
10.1367,0.149794
10.1406,0.146323
10.1445,0.125119
10.1484,0.0793684
10.1523,0.225176
10.1563,0.107518
10.1602,0.159646
10.1641,0.175608
10.168,0.282163
10.1719,0.118594
10.1758,0.29312
10.1797,0.192539
10.1836,0.196253
10.1875,0.255721
10.1914,0.316271
10.1953,0.223911
10.1992,0.240009
10.2031,0.40576
10.207,0.343173
10.2109,0.299645
10.2148,0.446654
10.2188,0.44666
10.2227,0.319715
10.2266,0.296081
10.2305,0.451724
10.2344,0.496064
10.2383,0.358676
10.2422,0.354508
10.2461,0.477105
10.25,0.488079
10.2539,0.479109
10.2578,0.384671
10.2617,0.526947
10.2656,0.582919
10.2695,0.571478
10.2734,0.42094
10.2773,0.469143
10.2813,0.444984
10.2852,0.505462
10.2891,0.511197
10.293,0.442572
10.2969,0.534361
10.3008,0.524828
10.3047,0.511625
10.3086,0.41419
10.3125,0.342334
10.3164,0.459763
10.3203,0.502365
10.3242,0.321396
10.3281,0.296247
10.332,0.440394
10.3359,0.33822
10.3398,0.396229
10.3438,0.371855
10.3477,0.231364
10.3516,0.227827
10.3555,0.173929
10.3594,0.270002
10.3633,0.289268
10.3672,0.222209
10.3711,0.112345
10.375,0.29235
10.3789,0.182671
10.3828,0.137859
10.3867,0.0959656
10.3906,0.176781
10.3945,0.157861
10.3984,0.184908
10.4023,0.0579653
10.4063,0.0918195
10.4102,0.0430776
10.4141,0.178832
10.418,0.071278
10.4219,0.0542764
10.4258,-0.00351919
10.4297,0.152178
10.4336,0.0882351
10.4375,0.0936847
10.4414,0.158029
10.4453,0.126473
10.4492,0.113866
10.4531,0.0146045
10.457,0.087729
10.4609,0.16856
10.4648,0.0948989
10.4688,0.136661
10.4727,0.171236
10.4766,0.151018
10.4805,0.0162128
10.4844,-0.0199186
10.4883,0.0631767
10.4922,-0.024417
10.4961,0.0675031
10.5,0.162991
10.5039,0.0225752
10.5078,0.0501346
10.5117,0.0592234
10.5156,0.139211
10.5195,0.13806
10.5234,0.0638174
10.5273,0.0494015
10.5313,0.158532
10.5352,0.121594
10.5391,0.121017
10.543,0.162937
10.5469,0.0756351
10.5508,0.13205
10.5547,0.0641665
10.5586,0.143627
10.5625,0.0519269
10.5664,0.121568
10.5703,0.16923
10.5742,0.0786501
10.5781,0.0600196
10.582,0.0155127
10.5859,0.0388042
10.5898,-0.00366077
10.5938,0.0492468
10.5977,0.0402237
10.6016,0.0427005
10.6055,0.137738
10.6094,0.0806937
10.6133,0.0786469
10.6172,0.129362
10.6211,-0.00136971
10.625,0.0997381
10.6289,0.0440355
10.6328,0.0416725
10.6367,0.0897011
10.6406,0.147584
10.6445,0.0145256
10.6484,0.109326
10.6523,0.155245
10.6563,0.0147885
10.6602,0.0347468
10.6641,0.0746033
10.668,0.153591
10.6719,0.0763325
10.6758,0.0320484
10.6797,0.0842346
10.6836,0.0933173
10.6875,0.0623232
10.6914,-0.0156784
10.6953,0.123934
10.6992,0.0872566
10.7031,0.0653021
10.707,0.00588349
10.7109,0.0692503
10.7148,0.0498838
10.7188,0.0501598
10.7227,0.179622
10.7266,0.103987
10.7305,0.0455133
10.7344,0.120399
10.7383,0.212073
10.7422,0.102794
10.7461,0.265637
10.75,0.161092
10.7539,0.177643
10.7578,0.167103
10.7617,0.294132
10.7656,0.168693
10.7695,0.357977
10.7734,0.211811
10.7773,0.248225
10.7813,0.337315
10.7852,0.234971
10.7891,0.313744
10.793,0.357773
10.7969,0.398982
10.8008,0.356852
10.8047,0.355189
10.8086,0.279159
10.8125,0.235939
10.8164,0.280673
10.8203,0.207208
10.8242,0.317562
10.8281,0.266533
10.832,0.281531
10.8359,0.261233
10.8398,0.180605
10.8438,0.133444
10.8477,0.194469
10.8516,0.240585
10.8555,0.184453
10.8594,0.184724
10.8633,0.149513
10.8672,0.118012
10.8711,0.141262
10.875,0.0827936
10.8789,0.150302
10.8828,-0.0142654
10.8867,0.161592
10.8906,-0.0159328
10.8945,0.0705128
10.8984,0.0384778
10.9023,-0.0244719
10.9063,0.0940729
10.9102,0.0654397
10.9141,0.0898158
10.918,0.0327671
10.9219,0.0633599
10.9258,-0.00563912
10.9297,0.0438956
10.9336,0.00665067
10.9375,-0.0838548
10.9414,-0.0345933
10.9453,-0.0872974
10.9492,0.0169928
10.9531,-0.0246858
10.957,0.194374
10.9609,0.172668
10.9648,0.278309
10.9688,0.579347
10.9727,0.761598
10.9766,0.929252
10.9805,0.925212
10.9844,1.08383
10.9883,1.02632
10.9922,0.94085
10.9961,0.888869
11,0.75411
11.0039,0.398184
11.0078,0.344
11.0117,0.0866231
11.0156,-0.0170175
11.0195,-0.148473
11.0234,-0.10775
11.0273,-0.1151
11.0313,-0.195755
11.0352,-0.173956
11.0391,-0.101421
11.043,-0.115167
11.0469,-0.101621
11.0508,-0.104018
11.0547,-0.0234159
11.0586,-0.0544521
11.0625,-0.0288851
11.0664,-0.025333
11.0703,0.00199961
11.0742,0.0136623
11.0781,0.0980223
11.082,-0.0407791
11.0859,-0.0126337
11.0898,0.0362791
11.0938,0.020952
11.0977,-0.0215717
11.1016,0.0444526
11.1055,0.106973
11.1094,-0.0533826
11.1133,0.0261056
11.1172,-0.0412968
11.1211,0.0588726
11.125,0.0589452
11.1289,0.110068
11.1328,0.00899259
11.1367,0.0863375
11.1406,0.0677495
11.1445,0.155863
11.1484,0.124176
11.1523,0.0717703
11.1563,0.0800702
11.1602,0.0716675
11.1641,0.222362
11.168,0.10305
11.1719,0.0872348
11.1758,0.140505
11.1797,0.22976
11.1836,0.236239
11.1875,0.249225
11.1914,0.124561
11.1953,0.212644
11.1992,0.332619
11.2031,0.230509
11.207,0.300647
11.2109,0.254957
11.2148,0.234191
11.2188,0.300123
11.2227,0.398587
11.2266,0.443087
11.2305,0.430138
11.2344,0.284367
11.2383,0.343884
11.2422,0.331092
11.2461,0.353655
11.25,0.491846
11.2539,0.408042
11.2578,0.450199
11.2617,0.469157
11.2656,0.333051
11.2695,0.477593
11.2734,0.313751
11.2773,0.436024
11.2813,0.425763
11.2852,0.414953
11.2891,0.288492
11.293,0.340179
11.2969,0.340961
11.3008,0.332556
11.3047,0.384835
11.3086,0.334163
11.3125,0.344925
11.3164,0.274681
11.3203,0.343952
11.3242,0.150248
11.3281,0.229294
11.332,0.161483
11.3359,0.185721
11.3398,0.211222
11.3438,0.100993
11.3477,0.166521
11.3516,0.0961931
11.3555,0.193773
11.3594,0.0315523
11.3633,0.0132883
11.3672,0.173258
11.3711,0.00135846
11.375,-0.00864026
11.3789,-0.0172277
11.3828,-0.038882
11.3867,0.0263525
11.3906,0.0622115
11.3945,0.0883305
11.3984,0.0743912
11.4023,0.0537515
11.4063,0.00113386
11.4102,0.04426
11.4141,0.090575
11.418,-0.00300909
11.4219,-0.0458674
11.4258,0.048747
11.4297,-0.0639332
11.4336,-0.0660366
11.4375,-0.0213659
11.4414,0.00841147
11.4453,0.00666132
11.4492,-0.0926224
11.4531,-0.0929585
11.457,-0.0612445
11.4609,0.0287226
11.4648,-0.0363364
11.4688,0.047122
11.4727,0.068356
11.4766,-0.0387743
11.4805,-0.108
11.4844,-0.00399491
11.4883,0.0315678
11.4922,-0.0536038
11.4961,-0.0187117
11.5,-0.0725807
11.5039,0.0713575
11.5078,-0.0196011
11.5117,-0.00761226
11.5156,-0.0709385
11.5195,-0.0954926
11.5234,-0.102177
11.5273,0.0501628
11.5313,0.0410254
11.5352,-0.0736669
11.5391,0.0666758
11.543,0.0249637
11.5469,0.0199173
11.5508,0.0870618
11.5547,-0.103845
11.5586,-0.0253053
11.5625,-0.0117351
11.5664,0.00739309
11.5703,-0.092227
11.5742,0.0235832
11.5781,-0.0975446
11.582,0.00380827
11.5859,0.0352977
11.5898,-0.00907476
11.5938,0.0173119
11.5977,-0.0630072
11.6016,0.0238106
11.6055,-0.0287549
11.6094,-0.0837063
11.6133,-0.0285141
11.6172,-0.051012
11.6211,-0.0548926
11.625,0.0218748
11.6289,0.00232444
11.6328,-0.0191513
11.6367,-0.0577597
11.6406,0.0708974
11.6445,0.0719234
11.6484,-0.0429183
11.6523,0.0239894
11.6563,0.057472
11.6602,0.0931884
11.6641,0.0868126
11.668,-0.0193613
11.6719,-0.0628221
11.6758,0.0652397
11.6797,-0.0697671
11.6836,-0.0587756
11.6875,-0.0169073
11.6914,0.0844881
11.6953,0.0351049
11.6992,0.0400577
11.7031,0.11298
11.707,0.0485862
11.7109,-0.0578578
11.7148,0.109462
11.7188,0.0776953
11.7227,0.0612102
11.7266,0.0291934
11.7305,0.0384205
11.7344,0.0953479
11.7383,0.0580038
11.7422,0.0364746
11.7461,0.0753794
11.75,0.108283
11.7539,0.11125
11.7578,0.20761
11.7617,0.265464
11.7656,0.276257
11.7695,0.28686
11.7734,0.278887
11.7773,0.318265
11.7813,0.309703
11.7852,0.199019
11.7891,0.359253
11.793,0.179185
11.7969,0.28805
11.8008,0.196103
11.8047,0.194784
11.8086,0.20486
11.8125,0.165589
11.8164,0.214914
11.8203,0.289964
11.8242,0.164072
11.8281,0.186839
11.832,0.175915
11.8359,0.182324
11.8398,0.104864
11.8438,0.182062
11.8477,0.180983
11.8516,0.134562
11.8555,0.0300751
11.8594,0.122005
11.8633,-0.017969
11.8672,0.0463594
11.8711,0.0606333
11.875,0.0731632
11.8789,0.00387202
11.8828,0.068668
11.8867,0.0969509
11.8906,-0.072157
11.8945,-0.058233
11.8984,0.0839859
11.9023,-0.0078295
11.9063,-0.0149947
11.9102,0.0871116
11.9141,0.0345129
11.918,0.0656159
11.9219,-0.103086
11.9258,-0.152869
11.9297,-0.118445
11.9336,-0.116116
11.9375,-0.11597
11.9414,-0.0360719
11.9453,-0.116744
11.9492,-0.0953836
11.9531,0.0911463
11.957,0.041566
11.9609,0.247991
11.9648,0.457787
11.9688,0.56747
11.9727,0.662121
11.9766,0.855724
11.9805,0.85723
11.9844,1.08814
11.9883,0.985188
11.9922,0.892369
11.9961,0.893906
12,0.632262
12.0039,0.418312
12.0078,0.200178
12.0117,0.139375
12.0156,-0.0780786
12.0195,-0.193229
12.0234,-0.15772
12.0273,-0.250788
12.0313,-0.242323
12.0352,-0.154444
12.0391,-0.0981965
12.043,-0.163396
12.0469,-0.00263435
12.0508,0.0303542
12.0547,-0.0906263
12.0586,0.0432776
12.0625,0.027915
12.0664,0.0989343
12.0703,0.042432
12.0742,0.0667805
12.0781,0.078148
12.082,0.00886237
12.0859,-0.0155643
12.0898,-0.0561021
12.0938,0.0335167
12.0977,0.0708436
12.1016,0.000651062
12.1055,0.0517875
12.1094,0.00107515
12.1133,0.0155753
12.1172,0.0907413
12.1211,0.143974
12.125,0.143474
12.1289,0.0193344
12.1328,0.0638412
12.1367,0.168857
12.1406,0.0504575
12.1445,0.201026
12.1484,0.140674
12.1523,0.059759
12.1563,0.202448
12.1602,0.179524
12.1641,0.169493
12.168,0.122892
12.1719,0.0936481
12.1758,0.145798
12.1797,0.185305
12.1836,0.254117
12.1875,0.33929
12.1914,0.198356
12.1953,0.323318
12.1992,0.364181
12.2031,0.296265
12.207,0.248249
12.2109,0.392899
12.2148,0.339733
12.2188,0.280745
12.2227,0.444905
12.2266,0.408173
12.2305,0.310959
12.2344,0.482445
12.2383,0.315805
12.2422,0.323496
12.2461,0.518618
12.25,0.462035
12.2539,0.402491
12.2578,0.428762
12.2617,0.47974
12.2656,0.334401
12.2695,0.465888
12.2734,0.455593
12.2773,0.400344
12.2813,0.416949
12.2852,0.358999
12.2891,0.314853
12.293,0.349063
12.2969,0.440731
12.3008,0.288702
12.3047,0.301697
12.3086,0.279823
12.3125,0.216588
12.3164,0.287056
12.3203,0.335586
12.3242,0.334423
12.3281,0.28287
12.332,0.199668
12.3359,0.167912
12.3398,0.2323
12.3438,0.256182
12.3477,0.251685
12.3516,0.0703168
12.3555,0.138547
12.3594,0.0563024
12.3633,0.0705886
12.3672,0.186893
12.3711,0.0401975
12.375,0.016799
12.3789,0.0935876
12.3828,0.0408072
12.3867,0.0480095
12.3906,0.124272
12.3945,0.128768
12.3984,0.0925402
12.4023,0.0359886
12.4063,0.0778024
12.4102,-0.0108706
12.4141,0.0672859
12.418,0.0767817
12.4219,0.0602176
12.4258,0.00786856
12.4297,0.0103731
12.4336,-0.0290626
12.4375,0.0950956
12.4414,0.0341458
12.4453,0.00630804
12.4492,0.0903252
12.4531,-0.0172598
12.457,0.104529
12.4609,0.0991562
12.4648,0.10551
12.4688,0.0108247
12.4727,0.0140478
12.4766,0.110357
12.4805,0.0316191
12.4844,0.0537379
12.4883,0.0795119
12.4922,0.133477
12.4961,0.0514087
12.5,0.0703169
12.5039,0.0580312
12.5078,0.130117
12.5117,0.118276
12.5156,-0.0196952
12.5195,-0.0171252
12.5234,-0.0033808
12.5273,0.0990452
12.5313,-0.0107211
12.5352,0.1468
12.5391,0.0929035
12.543,-0.0131607
12.5469,0.124201
12.5508,0.135221
12.5547,0.146474
12.5586,0.0690632
12.5625,0.068319
12.5664,-0.00812986
12.5703,0.0600614
12.5742,0.0677992
12.5781,-0.00807014
12.582,0.0584125
12.5859,0.0674069
12.5898,0.00088498
12.5938,0.086489
12.5977,-0.0321568
12.6016,0.0270585
12.6055,0.0706183
12.6094,0.0300923
12.6133,0.0858994
12.6172,0.0385805
12.6211,-0.00607586
12.625,0.150468
12.6289,0.0966057
12.6328,0.101069
12.6367,0.105237
12.6406,0.119984
12.6445,0.140462
12.6484,0.0763726
12.6523,0.00450353
12.6563,0.0514623
12.6602,0.140884
12.6641,0.0125
12.668,0.0460163
12.6719,0.175414
12.6758,0.145844
12.6797,0.031925
12.6836,0.190855
12.6875,0.00765391
12.6914,0.0846874
12.6953,0.085915
12.6992,0.0914333
12.7031,0.0410394
12.707,0.111789
12.7109,0.158967
12.7148,0.244289
12.7188,0.102152
12.7227,0.141508
12.7266,0.137389
12.7305,0.156685
12.7344,0.150925
12.7383,0.133082
12.7422,0.233795
12.7461,0.207888
12.75,0.347652
12.7539,0.293548
12.7578,0.383446
12.7617,0.406688
12.7656,0.338436
12.7695,0.252503
12.7734,0.419085
12.7773,0.355146
12.7813,0.413334
12.7852,0.319208
12.7891,0.351057
12.793,0.236774
12.7969,0.398505
12.8008,0.33096
12.8047,0.210869
12.8086,0.316288
12.8125,0.240907
12.8164,0.163808
12.8203,0.174694
12.8242,0.1667
12.8281,0.147828
12.832,0.22928
12.8359,0.226493
12.8398,0.173047
12.8438,0.163265
12.8477,0.168786
12.8516,0.23103
12.8555,0.153977
12.8594,0.14262
12.8633,0.201123
12.8672,0.130783
12.8711,0.0809347
12.875,0.201854
12.8789,0.0938689
12.8828,0.120178
12.8867,0.136186
12.8906,0.118288
12.8945,0.0135794
12.8984,-0.0259899
12.9023,-0.00242693
12.9063,0.0997832
12.9102,0.0207454
12.9141,-0.0161272
12.918,-0.0408487
12.9219,0.0112037
12.9258,-0.0210598
12.9297,-0.0123904
12.9336,-0.0820891
12.9375,0.0276526
12.9414,0.1261
12.9453,0.213612
12.9492,0.377752
12.9531,0.514471
12.957,0.769238
12.9609,0.844533
12.9648,1.03324
12.9688,1.06321
12.9727,1.12611
12.9766,1.11165
12.9805,0.912582
12.9844,0.831616
12.9883,0.514226
12.9922,0.466221
12.9961,0.146251
13,0.0888001
13.0039,-0.10011
13.0078,-0.00811852
13.0117,-0.166117
13.0156,-0.173698
13.0195,-0.154424
13.0234,-0.0222474
13.0273,-0.080217
13.0313,-0.0254024
13.0352,0.101581
13.0391,0.0746929
13.043,0.176224
13.0469,0.0195607
13.0508,0.104029
13.0547,0.136748
13.0586,0.139132
13.0625,0.193649
13.0664,0.0564133
13.0703,0.0934701
13.0742,0.0362856
13.0781,0.228701
13.082,0.194626
13.0859,0.194841
13.0898,0.0759329
13.0938,0.12201
13.0977,0.0868459
13.1016,0.160835
13.1055,0.228653
13.1094,0.199471
13.1133,0.217125
13.1172,0.214521
13.1211,0.240284
13.125,0.274873
13.1289,0.237467
13.1328,0.158058
13.1367,0.24715
13.1406,0.176422
13.1445,0.336785
13.1484,0.18352
13.1523,0.248803
13.1563,0.310777
13.1602,0.303707
13.1641,0.384112
13.168,0.343932
13.1719,0.298172
13.1758,0.409598
13.1797,0.312332
13.1836,0.428905
13.1875,0.43839
13.1914,0.371271
13.1953,0.375044
13.1992,0.384307
13.2031,0.392524
13.207,0.413729
13.2109,0.573645
13.2148,0.394095
13.2188,0.589358
13.2227,0.408515
13.2266,0.601602
13.2305,0.469287
13.2344,0.515487
13.2383,0.58199
13.2422,0.586245
13.2461,0.440654
13.25,0.529394
13.2539,0.578474
13.2578,0.577005
13.2617,0.393831
13.2656,0.397244
13.2695,0.498936
13.2734,0.346733
13.2773,0.33748
13.2813,0.406729
13.2852,0.463993
13.2891,0.478105
13.293,0.263981
13.2969,0.355909
13.3008,0.403989
13.3047,0.398099
13.3086,0.370254
13.3125,0.362268
13.3164,0.321513
13.3203,0.1821
13.3242,0.247335
13.3281,0.166879
13.332,0.287611
13.3359,0.295993
13.3398,0.134038
13.3438,0.2674
13.3477,0.1595
13.3516,0.150475
13.3555,0.121027
13.3594,0.233806
13.3633,0.202705
13.3672,0.138793
13.3711,0.186545
13.375,0.229421
13.3789,0.0718369
13.3828,0.0828701
13.3867,0.15951
13.3906,0.190815
13.3945,0.197892
13.3984,0.105286
13.4023,0.0474925
13.4063,0.0394352
13.4102,0.0946821
13.4141,0.187776
13.418,0.0644947
13.4219,0.179507
13.4258,0.15209
13.4297,0.0263444
13.4336,0.178325
13.4375,0.205815
13.4414,0.119968
13.4453,0.188595
13.4492,0.0484211
13.4531,0.174521
13.457,0.208169
13.4609,0.190052
13.4648,0.075899
13.4688,0.067143
13.4727,0.129525
13.4766,0.105054
13.4805,0.121918
13.4844,0.225378
13.4883,0.147982
13.4922,0.216543
13.4961,0.126112
13.5,0.116065
13.5039,0.183451
13.5078,0.178177
13.5117,0.118392
13.5156,0.0408611
13.5195,0.0482748
13.5234,0.190754
13.5273,0.162717
13.5313,0.0385062
13.5352,0.143886
13.5391,0.17686
13.543,0.0554027
13.5469,0.0770658
13.5508,0.19635
13.5547,0.0622824
13.5586,0.211329
13.5625,0.220057
13.5664,0.0382902
13.5703,0.111564
13.5742,0.0700875
13.5781,0.144966
13.582,0.0576548
13.5859,0.0455842
13.5898,0.224795
13.5938,0.232899
13.5977,0.111213
13.6016,0.168339
13.6055,0.0535957
13.6094,0.0821484
13.6133,0.0491168
13.6172,0.135794
13.6211,0.0727951
13.625,0.242057
13.6289,0.130439
13.6328,0.237595
13.6367,0.193192
13.6406,0.16675
13.6445,0.161338
13.6484,0.197663
13.6523,0.0615328
13.6563,0.221742
13.6602,0.256181
13.6641,0.0789666
13.668,0.24975
13.6719,0.246904
13.6758,0.302605
13.6797,0.159569
13.6836,0.309875
13.6875,0.267268
13.6914,0.173667
13.6953,0.220623
13.6992,0.334578
13.7031,0.357999
13.707,0.23275
13.7109,0.320298
13.7148,0.283633
13.7188,0.436494
13.7227,0.326489
13.7266,0.442475
13.7305,0.329328
13.7344,0.457044
13.7383,0.32072
13.7422,0.43403
13.7461,0.285124
13.75,0.401347
13.7539,0.37777
13.7578,0.328911
13.7617,0.283585
13.7656,0.385625
13.7695,0.241493
13.7734,0.294916
13.7773,0.184158
13.7813,0.203533
13.7852,0.248267
13.7891,0.304491
13.793,0.151485
13.7969,0.2571
13.8008,0.23732
13.8047,0.0955932
13.8086,0.177229
13.8125,0.265668
13.8164,0.0869411
13.8203,0.207201
13.8242,0.181302
13.8281,0.168235
13.832,0.145546
13.8359,0.15625
13.8398,0.124914
13.8438,0.0513233
13.8477,0.0894504
13.8516,0.136733
13.8555,0.141041
13.8594,0.186319
13.8633,0.177093
13.8672,-0.0219191
13.8711,0.0681525
13.875,0.0349114
13.8789,-0.00542185
13.8828,-0.0304591
13.8867,0.0105866
13.8906,0.0917615
13.8945,0.221456
13.8984,0.150608
13.9023,0.424745
13.9063,0.539176
13.9102,0.774176
13.9141,0.775805
13.918,0.945902
13.9219,0.978942
13.9258,1.08969
13.9297,1.09804
13.9336,0.895387
13.9375,0.731597
13.9414,0.576496
13.9453,0.420419
13.9492,0.308607
13.9531,0.118496
13.957,-0.0195191
13.9609,0.00628915
13.9648,-0.0283974
13.9688,-0.11344
13.9727,-0.206013
13.9766,-0.0839781
13.9805,-0.0958909
13.9844,0.0634533
13.9883,-0.0416405
13.9922,0.0729536
13.9961,0.0627533
14,0.0114255
14.0039,0.122078
14.0078,0.00180849
14.0117,0.0334062
14.0156,0.00878827
14.0195,0.178948
14.0234,0.171886
14.0273,0.0295593
14.0313,0.0901093
14.0352,0.0343743
14.0391,0.12732
14.043,0.205665
14.0469,0.0703043
14.0508,0.220634
14.0547,0.0966871
14.0586,0.0729598
14.0625,0.169449
14.0664,0.236493
14.0703,0.17244
14.0742,0.0672658
14.0781,0.13654
14.082,0.103019
14.0859,0.124624
14.0898,0.0980894
14.0938,0.277956
14.0977,0.266887
14.1016,0.194103
14.1055,0.297798
14.1094,0.294618
14.1133,0.281212
14.1172,0.249112
14.1211,0.255998
14.125,0.216077
14.1289,0.281032
14.1328,0.336945
14.1367,0.333858
14.1406,0.385328
14.1445,0.373232
14.1484,0.447345
14.1523,0.317319
14.1563,0.403398
14.1602,0.44061
14.1641,0.371168
14.168,0.466069
14.1719,0.36314
14.1758,0.47563
14.1797,0.535386
14.1836,0.471918
14.1875,0.463391
14.1914,0.407511
14.1953,0.383923
14.1992,0.528582
14.2031,0.533757
14.207,0.428852
14.2109,0.387225
14.2148,0.431801
14.2188,0.513834
14.2227,0.506474
14.2266,0.460137
14.2305,0.50711
14.2344,0.490836
14.2383,0.311133
14.2422,0.403995
14.2461,0.355719
14.25,0.257669
14.2539,0.408422
14.2578,0.312624
14.2617,0.351664
14.2656,0.193725
14.2695,0.218522
14.2734,0.280859
14.2773,0.162322
14.2813,0.248713
14.2852,0.183944
14.2891,0.246699
14.293,0.211496
14.2969,0.145322
14.3008,0.117878
14.3047,0.115485
14.3086,0.22155
14.3125,0.120039
14.3164,0.109004
14.3203,0.103744
14.3242,0.195029
14.3281,0.0435029
14.332,0.170483
14.3359,-0.00710925
14.3398,0.0527417
14.3438,0.133595
14.3477,0.045443
14.3516,0.0975913
14.3555,0.0617966
14.3594,-0.0290413
14.3633,0.0868023
14.3672,0.0856373
14.3711,0.0937734
14.375,0.0312023
14.3789,0.0602766
14.3828,0.101108
14.3867,0.137617
14.3906,-0.0294765
14.3945,-0.0212199
14.3984,0.0887865
14.4023,0.111479
14.4063,0.15619
14.4102,-0.0163192
14.4141,0.0315979
14.418,0.0940892
14.4219,0.0341739
14.4258,0.131916
14.4297,0.017827
14.4336,-0.0136758
14.4375,0.0943324
14.4414,0.000483645
14.4453,0.133831
14.4492,0.110519
14.4531,0.0443201
14.457,-0.0393556
14.4609,-0.00935758
14.4648,0.0156655
14.4688,0.13553
14.4727,0.0814393
14.4766,0.0255683
14.4805,0.0183283
14.4844,0.0486695
14.4883,0.142492
14.4922,0.146894
14.4961,0.0630607
14.5,0.0876458
14.5039,0.106107
14.5078,-0.0328403
14.5117,0.0774842
14.5156,-0.0280756
14.5195,0.0472469
14.5234,0.0564109
14.5273,-0.0324895
14.5313,-0.0238837
14.5352,0.148004
14.5391,0.0701466
14.543,0.0367781
14.5469,0.0363058
14.5508,-0.00611145
14.5547,-0.00636422
14.5586,0.0339821
14.5625,0.0311352
14.5664,0.120887
14.5703,0.0615939
14.5742,0.0574045
14.5781,-0.009063
14.582,0.142259
14.5859,0.100235
14.5898,0.132746
14.5938,0.0975105
14.5977,0.163667
14.6016,0.163746
14.6055,0.0190239
14.6094,0.0954769
14.6133,0.118211
14.6172,0.0746934
14.6211,0.148086
14.625,0.0199968
14.6289,0.0110355
14.6328,-0.0080718
14.6367,0.0279639
14.6406,0.111119
14.6445,0.114309
14.6484,0.0981748
14.6523,0.0933266
14.6563,0.0431622
14.6602,0.217796
14.6641,0.195604
14.668,0.171444
14.6719,0.144917
14.6758,0.271337
14.6797,0.289998
14.6836,0.309899
14.6875,0.246591
14.6914,0.360073
14.6953,0.345761
14.6992,0.203238
14.7031,0.243137
14.707,0.364943
14.7109,0.285995
14.7148,0.299037
14.7188,0.394573
14.7227,0.393353
14.7266,0.347184
14.7305,0.300641
14.7344,0.358545
14.7383,0.262325
14.7422,0.182855
14.7461,0.200128
14.75,0.178728
14.7539,0.21527
14.7578,0.101357
14.7617,0.0862041
14.7656,0.0908411
14.7695,0.232785
14.7734,0.192233
14.7773,0.159857
14.7813,0.200685
14.7852,0.196357
14.7891,0.18537
14.793,0.0102411
14.7969,0.165326
14.8008,0.0740472
14.8047,-0.0221149
14.8086,0.021322
14.8125,0.134513
14.8164,0.119286
14.8203,-0.0504615
14.8242,0.0731272
14.8281,0.100265
14.832,-0.0191828
14.8359,-0.0666516
14.8398,-0.0422729
14.8438,-0.0940327
14.8477,-0.0407456
14.8516,-0.0775462
14.8555,-0.106194
14.8594,-0.018588
14.8633,-0.112371
14.8672,-0.12114
14.8711,-0.124966
14.875,-0.0192426
14.8789,0.0858535
14.8828,0.173747
14.8867,0.463318
14.8906,0.492042
14.8945,0.775831
14.8984,0.875192
14.9023,0.939979
14.9063,1.05632
14.9102,0.959612
14.9141,0.825822
14.918,0.773996
14.9219,0.530594
14.9258,0.492637
14.9297,0.272029
14.9336,0.1484
14.9375,-0.00230853
14.9414,-0.0960672
14.9453,-0.20151
14.9492,-0.225652
14.9531,-0.242978
14.957,-0.308341
14.9609,-0.242408
14.9648,-0.14027
14.9688,-0.26574
14.9727,-0.139512
14.9766,-0.121373
14.9805,-0.00144376
14.9844,-0.0365967
14.9883,0.0481334
14.9922,-0.0219645
14.9961,0.0350859
15,-0.0353007
15.0039,-0.017055
15.0078,-0.0879544
15.0117,0.00514212
15.0156,0.0728313
15.0195,-0.0108158
15.0234,-0.0192909
15.0273,0.0462214
15.0313,-0.0909958
15.0352,0.0699159
15.0391,-0.101809
15.043,0.00378192
15.0469,0.0416607
15.0508,0.0240716
15.0547,0.0120584
15.0586,-0.013569
15.0625,0.0491478
15.0664,0.11853
15.0703,0.0800563
15.0742,0.141157
15.0781,-0.0194971
15.082,0.0723833
15.0859,0.00231547
15.0898,0.100069
15.0938,0.140102
15.0977,0.0437348
15.1016,0.182217
15.1055,0.119474
15.1094,0.23274
15.1133,0.128304
15.1172,0.093253
15.1211,0.13934
15.125,0.126587
15.1289,0.314751
15.1328,0.142572
15.1367,0.176722
15.1406,0.170505
15.1445,0.225169
15.1484,0.197654
15.1523,0.336707
15.1563,0.323735
15.1602,0.280714
15.1641,0.280662
15.168,0.269333
15.1719,0.332943
15.1758,0.267682
15.1797,0.392238
15.1836,0.371692
15.1875,0.340371
15.1914,0.429033
15.1953,0.447956
15.1992,0.331048
15.2031,0.378416
15.207,0.36042
15.2109,0.333224
15.2148,0.425275
15.2188,0.445095
15.2227,0.363856
15.2266,0.263729
15.2305,0.240057
15.2344,0.318617
15.2383,0.254806
15.2422,0.228631
15.2461,0.270464
15.25,0.181576
15.2539,0.265962
15.2578,0.126024
15.2617,0.106247
15.2656,0.141303
15.2695,0.0841435
15.2734,0.233629
15.2773,0.207947
15.2813,0.103214
15.2852,0.0437719
15.2891,0.0823479
15.293,0.0663665
15.2969,0.116337
15.3008,0.0399912
15.3047,0.137873
15.3086,0.119473
15.3125,0.11768
15.3164,-0.012356
15.3203,-0.0317638
15.3242,0.0799411
15.3281,-0.062337
15.332,-0.0844973
15.3359,-0.0123123
15.3398,0.0594929
15.3438,-0.0457474
15.3477,-0.0872531
15.3516,-0.118336
15.3555,0.0492945
15.3594,-0.019561
15.3633,-0.0670679
15.3672,-0.0116534
15.3711,0.0120533
15.375,-0.0811326
15.3789,-0.0104763
15.3828,-0.109183
15.3867,0.0410687
15.3906,-0.00885662
15.3945,-0.118242
15.3984,-0.0633479
15.4023,-0.0254762
15.4063,0.0338475
15.4102,-0.0462602
15.4141,-0.0267307
15.418,-0.0156886
15.4219,0.0330244
15.4258,-0.120755
15.4297,-0.0698352
15.4336,-0.0880999
15.4375,-0.0113954
15.4414,0.0284121
15.4453,-0.0511171
15.4492,0.0124071
15.4531,-0.0829608
15.457,-0.0377524
15.4609,-0.069443
15.4648,0.0326995
15.4688,-0.0109059
15.4727,0.0200869
15.4766,-0.123038
15.4805,-0.0886743
15.4844,0.00954172
15.4883,-0.100238
15.4922,-0.136096
15.4961,-0.0550535
15.5,0.0455546
15.5039,-0.0888546
15.5078,-0.0267788
15.5117,-0.0682751
15.5156,-0.134279
15.5195,-0.039027
15.5234,0.0268237
15.5273,-0.0862555
15.5313,-0.128352
15.5352,-0.0877154
15.5391,-0.00434774
15.543,-0.0700995
15.5469,-0.00357156
15.5508,-0.13236
15.5547,0.00916237
15.5586,-0.0557157
15.5625,-0.126723
15.5664,-0.0517009
15.5703,0.0108855
15.5742,0.0524288
15.5781,0.0655145
15.582,0.0659603
15.5859,0.04912
15.5898,0.043603
15.5938,0.0312826
15.5977,-0.0172579
15.6016,-0.043785
15.6055,-0.101381
15.6094,0.00494861
15.6133,0.0477426
15.6172,-0.069083
15.6211,0.0452331
15.625,-0.107251
15.6289,-0.0440074
15.6328,-0.0642048
15.6367,-0.0849795
15.6406,0.0133223
15.6445,-0.0464358
15.6484,0.0858349
15.6523,-0.00189139
15.6563,0.0511827
15.6602,-0.0880984
15.6641,0.0371434
15.668,0.0390125
15.6719,0.0938453
15.6758,0.0730452
15.6797,0.128417
15.6836,0.144972
15.6875,0.00761169
15.6914,0.0291917
15.6953,0.163091
15.6992,0.0318007
15.7031,0.112731
15.707,0.109973
15.7109,0.21187
15.7148,0.100466
15.7188,0.251941
15.7227,0.262732
15.7266,0.224066
15.7305,0.178002
15.7344,0.149368
15.7383,0.266093
15.7422,0.149396
15.7461,0.158084
15.75,0.17047
15.7539,0.231221
15.7578,0.269867
15.7617,0.298781
15.7656,0.217496
15.7695,0.116184
15.7734,0.156471
15.7773,0.208247
15.7813,0.222636
15.7852,0.108133
15.7891,0.134609
15.793,0.183526
15.7969,0.124021
15.8008,0.098043
15.8047,0.0434552
15.8086,0.0470258
15.8125,0.111878
15.8164,0.0111554
15.8203,0.0255596
15.8242,-0.00177666
15.8281,0.0532685
15.832,0.0246316
15.8359,0.0360992
15.8398,-0.000152696
15.8438,-0.020197
15.8477,-0.00460562
15.8516,-0.0871561
15.8555,-0.0199735
15.8594,0.0877022
15.8633,0.0432423
15.8672,0.0229297
15.8711,0.0170404
15.875,-0.00101121
15.8789,-0.00243066
15.8828,-0.0375487
15.8867,-0.0170195
15.8906,-0.210986
15.8945,-0.172263
15.8984,-0.167011
15.9023,-0.218079
15.9063,-0.249983
15.9102,-0.0284682
15.9141,-0.0187749
15.918,-0.0479575
15.9219,0.0661657
15.9258,0.318327
15.9297,0.417156
15.9336,0.52623
15.9375,0.751968
15.9414,0.830271
15.9453,1.05221
15.9492,1.11564
15.9531,0.903583
15.957,0.942835
15.9609,0.811986
15.9648,0.560498
15.9688,0.498311
15.9727,0.210737
15.9766,-0.00271276
15.9805,-0.122414
15.9844,-0.0840665
15.9883,-0.172264
15.9922,-0.198058
15.9961,-0.242618
16,-0.192804
16.0039,-0.325226
16.0078,-0.216123
16.0117,-0.209067
16.0156,-0.126052
16.0195,-0.013905
16.0234,-0.108055
16.0273,-0.024935
16.0313,-0.125588
16.0352,-0.0902158
16.0391,0.0519527
16.043,-0.0715536
16.0469,0.0584374
16.0508,-0.0375138
16.0547,0.0313508
16.0586,-0.089972
16.0625,0.0491419
16.0664,0.00514777
16.0703,0.0970008
16.0742,-0.0303293
16.0781,-0.00925743
16.082,-0.0577318
16.0859,0.116978
16.0898,0.0154374
16.0938,-0.04876
16.0977,0.0835489
16.1016,0.0479788
16.1055,0.0191941
16.1094,0.111809
16.1133,0.136427
16.1172,0.0286913
16.1211,0.0941706
16.125,0.0842829
16.1289,0.0393836
16.1328,0.139154
16.1367,0.218368
16.1406,0.0648296
16.1445,0.236221
16.1484,0.179767
16.1523,0.169046
16.1563,0.12834
16.1602,0.161982
16.1641,0.216794
16.168,0.248877
16.1719,0.228303
16.1758,0.326997
16.1797,0.363587
16.1836,0.348701
16.1875,0.297414
16.1914,0.350686
16.1953,0.371147
16.1992,0.280728
16.2031,0.365907
16.207,0.33922
16.2109,0.402229
16.2148,0.48347
16.2188,0.38714
16.2227,0.314083
16.2266,0.497691
16.2305,0.499738
16.2344,0.387887
16.2383,0.368219
16.2422,0.472033
16.2461,0.413857
16.25,0.419451
16.2539,0.437922
16.2578,0.312163
16.2617,0.459711
16.2656,0.464179
16.2695,0.284284
16.2734,0.422589
16.2773,0.422909
16.2813,0.230184
16.2852,0.318908
16.2891,0.329966
16.293,0.262226
16.2969,0.300037
16.3008,0.307512
16.3047,0.254738
16.3086,0.250648
16.3125,0.164684
16.3164,0.262018
16.3203,0.164769
16.3242,0.191537
16.3281,0.218289
16.332,0.092609
16.3359,0.106317
16.3398,0.125227
16.3438,0.0920233
16.3477,0.0108729
16.3516,0.1319
16.3555,-0.0195373
16.3594,0.0514918
16.3633,-0.0347168
16.3672,0.145952
16.3711,0.0488805
16.375,0.120598
16.3789,0.0101959
16.3828,0.105895
16.3867,-0.0239851
16.3906,0.103337
16.3945,0.0974179
16.3984,-0.00439862
16.4023,0.0386979
16.4063,0.025391
16.4102,0.0892901
16.4141,-0.047964
16.418,-0.0909474
16.4219,0.083705
16.4258,-0.0458781
16.4297,-0.0442454
16.4336,0.0348023
16.4375,-0.0325047
16.4414,0.0718052
16.4453,0.0836168
16.4492,0.0962509
16.4531,-0.0142729
16.457,0.068317
16.4609,-0.0599439
16.4648,0.0343482
16.4688,0.0499042
16.4727,-0.0718248
16.4766,0.0181426
16.4805,0.0905236
16.4844,-0.0335546
16.4883,-0.0384304
16.4922,0.0834425
16.4961,0.015516
16.5,-0.0522234
16.5039,-0.0356495
16.5078,0.0506796
16.5117,0.0325687
16.5156,-0.0207666
16.5195,0.0462155
16.5234,0.0658207
16.5273,-0.0203307
16.5313,0.00685949
16.5352,-0.00227396
16.5391,0.0824439
16.543,-0.045843
16.5469,0.108378
16.5508,-0.0131978
16.5547,0.0296986
16.5586,0.0874146
16.5625,0.0670127
16.5664,-0.0375421
16.5703,0.0727042
16.5742,-0.0399443
16.5781,0.124302
16.582,0.113241
16.5859,0.0397932
16.5898,0.0734948
16.5938,0.133782
16.5977,-0.0356842
16.6016,0.0904667
16.6055,0.10622
16.6094,0.0978867
16.6133,-0.0194268
16.6172,0.0289306
16.6211,-0.0530857
16.625,0.00992176
16.6289,-0.0273256
16.6328,0.0367417
16.6367,0.06204
16.6406,0.106987
16.6445,0.0335878
16.6484,0.057275
16.6523,0.137115
16.6563,0.133089
16.6602,0.0636632
16.6641,0.136521
16.668,-0.0315121
16.6719,0.121953
16.6758,0.0296648
16.6797,0.0112758
16.6836,0.133344
16.6875,0.0423718
16.6914,0.0102894
16.6953,-0.0120237
16.6992,0.17934
16.7031,0.131084
16.707,0.174826
16.7109,0.199212
16.7148,0.157119
16.7188,0.215272
16.7227,0.0948323
16.7266,0.233272
16.7305,0.253671
16.7344,0.143929
16.7383,0.113435
16.7422,0.267476
16.7461,0.146406
16.75,0.290511
16.7539,0.249316
16.7578,0.304284
16.7617,0.221198
16.7656,0.305563
16.7695,0.33644
16.7734,0.221057
16.7773,0.318804
16.7813,0.406261
16.7852,0.253741
16.7891,0.319013
16.793,0.359631
16.7969,0.281615
16.8008,0.405527
16.8047,0.345151
16.8086,0.236779
16.8125,0.29398
16.8164,0.345329
16.8203,0.266686
16.8242,0.290742
16.8281,0.304234
16.832,0.278685
16.8359,0.12187
16.8398,0.119437
16.8438,0.0989426
16.8477,0.0614505
16.8516,0.0459043
16.8555,0.152842
16.8594,0.145925
16.8633,0.199513
16.8672,0.155109
16.8711,0.0623519
16.875,0.0959871
16.8789,0.0441835
16.8828,0.135585
16.8867,0.00941948
16.8906,0.132671
16.8945,0.142859
16.8984,0.127079
16.9023,0.0419741
16.9063,0.0867894
16.9102,0.0563372
16.9141,-0.0312214
16.918,0.101641
16.9219,0.0538147
16.9258,-0.0519401
16.9297,0.0655127
16.9336,-0.113004
16.9375,-0.105336
16.9414,-0.0873505
16.9453,-0.110251
16.9492,-0.0857994
16.9531,0.0734981
16.957,0.0534464
16.9609,0.235811
16.9648,0.330785
16.9688,0.523656
16.9727,0.784303
16.9766,0.804582
16.9805,0.899249
16.9844,1.17597
16.9883,1.1703
16.9922,1.10609
16.9961,1.00455
17,0.759401
17.0039,0.746305
17.0078,0.433302
17.0117,0.313709
17.0156,0.115301
17.0195,-0.0849053
17.0234,-0.0672166
17.0273,-0.130689
17.0313,-0.208958
17.0352,-0.24888
17.0391,-0.0703368
17.043,-0.197815
17.0469,-0.107137
17.0508,0.023978
17.0547,0.0957704
17.0586,0.0457819
17.0625,0.10449
17.0664,0.109132
17.0703,0.103943
17.0742,0.113373
17.0781,0.172564
17.082,0.0949273
17.0859,0.0702666
17.0898,0.127141
17.0938,0.0836153
17.0977,0.0246762
17.1016,0.0887786
17.1055,0.113618
17.1094,0.086617
17.1133,0.0910954
17.1172,0.165948
17.1211,0.124818
17.125,0.123573
17.1289,0.0488645
17.1328,0.0874753
17.1367,0.133555
17.1406,0.17896
17.1445,0.201189
17.1484,0.266382
17.1523,0.263496
17.1563,0.105354
17.1602,0.288126
17.1641,0.141136
17.168,0.314452
17.1719,0.252141
17.1758,0.193717
17.1797,0.173168
17.1836,0.233003
17.1875,0.349972
17.1914,0.217182
17.1953,0.287538
17.1992,0.257984
17.2031,0.278192
17.207,0.273887
17.2109,0.416539
17.2148,0.307866
17.2188,0.427878
17.2227,0.352637
17.2266,0.460786
17.2305,0.441995
17.2344,0.409964
17.2383,0.528907
17.2422,0.535008
17.2461,0.566219
17.25,0.384522
17.2539,0.516961
17.2578,0.393284
17.2617,0.414497
17.2656,0.414424
17.2695,0.46479
17.2734,0.43606
17.2773,0.452637
17.2813,0.427152
17.2852,0.447076
17.2891,0.445005
17.293,0.478746
17.2969,0.497066
17.3008,0.381342
17.3047,0.483042
17.3086,0.44851
17.3125,0.451222
17.3164,0.307577
17.3203,0.269048
17.3242,0.362661
17.3281,0.365459
17.332,0.232067
17.3359,0.213644
17.3398,0.299019
17.3438,0.327201
17.3477,0.313382
17.3516,0.154552
17.3555,0.269675
17.3594,0.291561
17.3633,0.18928
17.3672,0.101731
17.3711,0.125336
17.375,0.213664
17.3789,0.0663172
17.3828,0.134758
17.3867,0.150226
17.3906,0.225955
17.3945,0.0706343
17.3984,0.0464184
17.4023,0.147303
17.4063,0.0352278
17.4102,0.206278
17.4141,0.0557897
17.418,0.124406
17.4219,0.163916
17.4258,0.164413
17.4297,0.0943701
17.4336,0.147174
17.4375,0.176796
17.4414,0.172966
17.4453,0.0348375
17.4492,0.10082
17.4531,0.147944
17.457,0.0296386
17.4609,0.140013
17.4648,0.0857521
17.4688,0.107403
17.4727,0.0430638
17.4766,0.0082045
17.4805,0.0512268
17.4844,0.175454
17.4883,0.0866243
17.4922,0.0469683
17.4961,0.146267
17.5,0.148703
17.5039,-0.00087993
17.5078,0.171445
17.5117,0.155665
17.5156,0.0614436
17.5195,0.130995
17.5234,0.0570156
17.5273,0.184314
17.5313,0.0552788
17.5352,0.0332215
17.5391,0.149034
17.543,0.0959777
17.5469,0.131786
17.5508,0.194958
17.5547,0.0648005
17.5586,0.0180396
17.5625,0.161592
17.5664,0.0769399
17.5703,0.121432
17.5742,0.0416201
17.5781,0.0208677
17.582,0.0367364
17.5859,0.171887
17.5898,0.0671986
17.5938,0.0842672
17.5977,0.138111
17.6016,0.171895
17.6055,0.162125
17.6094,0.0841498
17.6133,0.0477247
17.6172,0.139488
17.6211,0.0113444
17.625,0.0676416
17.6289,0.139234
17.6328,0.130392
17.6367,0.0775169
17.6406,0.210756
17.6445,0.0381503
17.6484,0.161253
17.6523,0.04602
17.6563,0.102297
17.6602,0.182547
17.6641,0.0888911
17.668,0.0330874
17.6719,0.130319
17.6758,0.0750276
17.6797,0.0482264
17.6836,0.163645
17.6875,0.123183
17.6914,0.0652885
17.6953,0.0522606
17.6992,0.0762132
17.7031,0.0674127
17.707,0.110564
17.7109,0.242124
17.7148,0.165614
17.7188,0.116934
17.7227,0.164116
17.7266,0.220805
17.7305,0.207887
17.7344,0.232488
17.7383,0.296502
17.7422,0.213947
17.7461,0.302096
17.75,0.198498
17.7539,0.193753
17.7578,0.264877
17.7617,0.374706
17.7656,0.300293
17.7695,0.431612
17.7734,0.368887
17.7773,0.32441
17.7813,0.44925
17.7852,0.447981
17.7891,0.440697
17.793,0.321721
17.7969,0.324809
17.8008,0.418644
17.8047,0.395599
17.8086,0.344394
17.8125,0.428154
17.8164,0.317054
17.8203,0.406845
17.8242,0.291147
17.8281,0.27836
17.832,0.315882
17.8359,0.22433
17.8398,0.222345
17.8438,0.143864
17.8477,0.255399
17.8516,0.204101
17.8555,0.20919
17.8594,0.2286
17.8633,0.103744
17.8672,0.223019
17.8711,0.225203
17.875,0.0964871
17.8789,0.178076
17.8828,0.0965047
17.8867,0.0795841
17.8906,0.0559977
17.8945,0.151769
17.8984,0.12287
17.9023,0.177495
17.9063,0.0602766
17.9102,0.0346217
17.9141,0.0740633
17.918,0.0666593
17.9219,0.107982
17.9258,-0.0463493
17.9297,-0.0859668
17.9336,0.00867562
17.9375,-0.124039
17.9414,-0.104445
17.9453,0.0244818
17.9492,0.0317649
17.9531,0.109661
17.957,0.265398
17.9609,0.392557
17.9648,0.486324
17.9688,0.606806
17.9727,0.742139
17.9766,1.04136
17.9805,1.16072
17.9844,1.20024
17.9883,1.12069
17.9922,0.930695
17.9961,0.794827
18,0.648936
18.0039,0.437742
18.0078,0.399176
18.0117,0.122984
18.0156,0.0877587
18.0195,0.0166697
18.0234,-0.0970068
18.0273,-0.172926
18.0313,-0.0950686
18.0352,-0.187217
18.0391,-0.15733
18.043,-0.0287824
18.0469,-0.0471678
18.0508,-0.0600401
18.0547,0.064683
18.0586,-0.0254998
18.0625,0.14329
18.0664,0.0153968
18.0703,-0.00450705
18.0742,-0.00143596
18.0781,0.141068
18.082,0.153112
18.0859,0.13972
18.0898,0.145292
18.0938,0.187936
18.0977,0.0912152
18.1016,0.157806
18.1055,0.0876815
18.1094,0.195001
18.1133,0.00996784
18.1172,0.209809
18.1211,0.131878
18.125,0.0918826
18.1289,0.139334
18.1328,0.093549
18.1367,0.0716881
18.1406,0.179772
18.1445,0.191011
18.1484,0.220732
18.1523,0.140701
18.1563,0.130373
18.1602,0.159395
18.1641,0.166802
18.168,0.297878
18.1719,0.275498
18.1758,0.194392
18.1797,0.270952
18.1836,0.316349
18.1875,0.346189
18.1914,0.371484
18.1953,0.324588
18.1992,0.233649
18.2031,0.278077
18.207,0.422798
18.2109,0.346043
18.2148,0.40946
18.2188,0.447513
18.2227,0.353423
18.2266,0.427057
18.2305,0.373585
18.2344,0.339602
18.2383,0.501048
18.2422,0.360443
18.2461,0.441824
18.25,0.419535
18.2539,0.414328
18.2578,0.50898
18.2617,0.561049
18.2656,0.379565
18.2695,0.526038
18.2734,0.533726
18.2773,0.550751
18.2813,0.557912
18.2852,0.379318
18.2891,0.450163
18.293,0.500594
18.2969,0.452365
18.3008,0.503559
18.3047,0.489154
18.3086,0.479375
18.3125,0.285214
18.3164,0.344461
18.3203,0.305955
18.3242,0.253159
18.3281,0.237658
18.332,0.35625
18.3359,0.284355
18.3398,0.352711
18.3438,0.346186
18.3477,0.215444
18.3516,0.193019
18.3555,0.149917
18.3594,0.180041
18.3633,0.130964
18.3672,0.15709
18.3711,0.140135
18.375,0.0945434
18.3789,0.0591874
18.3828,0.10685
18.3867,0.115645
18.3906,0.07109
18.3945,0.135773
18.3984,0.0806941
18.4023,0.0730526
18.4063,0.138946
18.4102,0.138421
18.4141,0.121221
18.418,0.124629
18.4219,0.0634718
18.4258,0.0711257
18.4297,0.0835102
18.4336,-0.025402
18.4375,0.00211246
18.4414,0.0744042
18.4453,0.0108054
18.4492,0.102
18.4531,0.00105056
18.457,-0.0453249
18.4609,0.0053914
18.4648,0.0567732
18.4688,0.138847
18.4727,0.0824888
18.4766,0.0879622
18.4805,0.0559946
18.4844,0.0507342
18.4883,0.119146
18.4922,0.0226132
18.4961,0.0356465
18.5,-0.0142384
18.5039,0.0956795
18.5078,0.0537022
18.5117,0.0160008
18.5156,0.0848971
18.5195,-0.0332739
18.5234,-0.053607
18.5273,0.0647214
18.5313,0.0772833
18.5352,0.0616301
18.5391,0.127793
18.543,0.0731771
18.5469,0.0512595
18.5508,-0.00175858
18.5547,-0.0432817
18.5586,0.0930388
18.5625,-0.0203311
18.5664,0.00304878
18.5703,-0.000989516
18.5742,0.0566966
18.5781,0.0556802
18.582,0.105195
18.5859,0.121636
18.5898,0.105363
18.5938,0.141878
18.5977,-0.015779
18.6016,0.13438
18.6055,-0.0425779
18.6094,-0.00334875
18.6133,-0.0495771
18.6172,0.0831005
18.6211,0.129875
18.625,0.063528
18.6289,-0.0197285
18.6328,0.0497905
18.6367,0.0630054
18.6406,-0.0127399
18.6445,0.0146038
18.6484,0.0931529
18.6523,0.0607326
18.6563,-0.0211719
18.6602,0.026701
18.6641,0.0302442
18.668,0.0666454
18.6719,-0.0443667
18.6758,0.0678441
18.6797,0.139497
18.6836,-0.0246431
18.6875,0.101579
18.6914,0.150712
18.6953,0.0801939
18.6992,0.104537
18.7031,0.0237956
18.707,0.0582762
18.7109,-0.0199961
18.7148,0.0521912
18.7188,0.053061
18.7227,0.0447664
18.7266,0.158101
18.7305,0.093376
18.7344,0.174117
18.7383,0.181344
18.7422,0.0913876
18.7461,0.0608668
18.75,0.0714571
18.7539,0.201977
18.7578,0.173823
18.7617,0.284787
18.7656,0.201805
18.7695,0.163478
18.7734,0.25437
18.7773,0.346577
18.7813,0.302925
18.7852,0.259724
18.7891,0.240822
18.793,0.364735
18.7969,0.388041
18.8008,0.275951
18.8047,0.21312
18.8086,0.232694
18.8125,0.30591
18.8164,0.220114
18.8203,0.231381
18.8242,0.253801
18.8281,0.217763
18.832,0.197766
18.8359,0.21103
18.8398,0.150638
18.8438,0.0932533
18.8477,0.203762
18.8516,0.0885827
18.8555,0.202704
18.8594,0.110018
18.8633,0.0808322
18.8672,0.152635
18.8711,0.141874
18.875,0.0176832
18.8789,-0.00239921
18.8828,0.0010416
18.8867,0.0849408
18.8906,0.122184
18.8945,0.0512304
18.8984,-0.0213256
18.9023,0.0853285
18.9063,0.121097
18.9102,-0.0195684
18.9141,0.107201
18.918,-0.0297519
18.9219,0.0879086
18.9258,0.0820892
18.9297,0.000629288
18.9336,-0.0270464
18.9375,0.0335344
18.9414,-0.15501
18.9453,-0.0885387
18.9492,-0.0836157
18.9531,-0.0684192
18.957,-0.160903
18.9609,-0.174543
18.9648,-0.0970428
18.9688,0.112946
18.9727,0.266793
18.9766,0.290387
18.9805,0.571162
18.9844,0.605718
18.9883,0.729577
18.9922,0.9121
18.9961,1.03307
19,1.07367
19.0039,1.01863
19.0078,0.877247
19.0117,0.70212
19.0156,0.528922
19.0195,0.344637
19.0234,0.284281
19.0273,0.0790649
19.0313,-0.119491
19.0352,-0.0982996
19.0391,-0.267169
19.043,-0.177349
19.0469,-0.243805
19.0508,-0.2239
19.0547,-0.263882
19.0586,-0.112799
19.0625,-0.126759
19.0664,-0.0823683
19.0703,-0.0816939
19.0742,0.00208058
19.0781,-0.110267
19.082,0.00579421
19.0859,0.0671887
19.0898,-0.0102393
19.0938,0.0339308
19.0977,-0.0334902
19.1016,0.0292686
19.1055,-0.0345244
19.1094,0.0716579
19.1133,0.07317
19.1172,0.10716
19.1211,0.00789891
19.125,0.0134152
19.1289,0.0453624
19.1328,0.0976705
19.1367,-0.0604473
19.1406,-0.0246158
19.1445,0.131748
19.1484,0.138224
19.1523,0.045387
19.1563,0.123664
19.1602,0.154557
19.1641,0.111216
19.168,0.0596561
19.1719,0.0754835
19.1758,0.0919042
19.1797,0.150299
19.1836,0.118632
19.1875,0.227916
19.1914,0.120413
19.1953,0.130012
19.1992,0.25459
19.2031,0.198131
19.207,0.252879
19.2109,0.142251
19.2148,0.222373
19.2188,0.161257
19.2227,0.293566
19.2266,0.316099
19.2305,0.373386
19.2344,0.335472
19.2383,0.354858
19.2422,0.400362
19.2461,0.33527
19.25,0.344643
19.2539,0.424507
19.2578,0.437558
19.2617,0.318896
19.2656,0.292939
19.2695,0.304865
19.2734,0.326403
19.2773,0.334954
19.2813,0.427207
19.2852,0.307818
19.2891,0.394779
19.293,0.432936
19.2969,0.315709
19.3008,0.334074
19.3047,0.337444
19.3086,0.305664
19.3125,0.326127
19.3164,0.41075
19.3203,0.298557
19.3242,0.380919
19.3281,0.322687
19.332,0.308705
19.3359,0.328959
19.3398,0.32219
19.3438,0.331994
19.3477,0.163686
19.3516,0.279034
19.3555,0.142316
19.3594,0.0946008
19.3633,0.0989112
19.3672,0.0851528
19.3711,0.0694631
19.375,0.216741
19.3789,0.0707748
19.3828,0.191707
19.3867,0.118488
19.3906,0.153724
19.3945,0.0416873
19.3984,0.00527539
19.4023,-0.01403
19.4063,0.0488091
19.4102,-0.017435
19.4141,-0.0147295
19.418,-0.079548
19.4219,0.0287106
19.4258,0.0981926
19.4297,0.0706794
19.4336,-0.102147
19.4375,0.0191161
19.4414,-0.0393262
19.4453,-0.091442
19.4492,-0.00876528
19.4531,-0.0359555
19.457,-0.0177965
19.4609,0.0543379
19.4648,-0.0943996
19.4688,-0.0384839
19.4727,-0.114526
19.4766,-0.0508409
19.4805,0.0168912
19.4844,-0.10894
19.4883,0.00522544
19.4922,-0.0690696
19.4961,-0.00868252
19.5,-0.0979805
19.5039,-0.040928
19.5078,-0.12543
19.5117,-0.0818507
19.5156,-0.0745454
19.5195,-0.0245799
19.5234,-0.0833757
19.5273,-0.0566765
19.5313,0.0241804
19.5352,-0.0421301
19.5391,-0.113168
19.543,-0.0457754
19.5469,-0.0283505
19.5508,0.0423435
19.5547,-0.0614748
19.5586,0.0426604
19.5625,-0.00806757
19.5664,-0.109844
19.5703,-0.0682446
19.5742,-0.00196073
19.5781,-0.0233724
19.582,-0.0791257
19.5859,-0.0705836
19.5898,0.0381369
19.5938,0.00607069
19.5977,-0.0880349
19.6016,0.0269088
19.6055,-0.0354679
19.6094,-0.0227443
19.6133,0.026777
19.6172,-0.0339054
19.6211,-0.110752
19.625,-0.0981978
19.6289,0.00557341
19.6328,-0.022972
19.6367,0.0736022
19.6406,-0.0923091
19.6445,-0.035784
19.6484,-0.00125896
19.6523,-0.0877211
19.6563,0.0712355
19.6602,0.0174015
19.6641,0.072242
19.668,0.0177016
19.6719,-0.105106
19.6758,-0.0441621
19.6797,-0.0845438
19.6836,0.0195718
19.6875,-0.0935124
19.6914,0.0298938
19.6953,-0.00857161
19.6992,-0.0419931
19.7031,0.00124867
19.707,0.040616
19.7109,0.0633279
19.7148,-0.0346016
19.7188,-0.0335546
19.7227,-0.024475
19.7266,0.0426081
19.7305,0.084926
19.7344,0.0690505
19.7383,0.0965327
19.7422,0.101037
19.7461,-0.0324101
19.75,0.110198
19.7539,0.140131
19.7578,0.111309
19.7617,0.142373
19.7656,-0.00795097
19.7695,0.120153
19.7734,0.06874
19.7773,0.145861
19.7813,0.208186
19.7852,0.121789
19.7891,0.215406
19.793,0.110614
19.7969,0.195573
19.8008,0.231175
19.8047,0.261659
19.8086,0.192178
19.8125,0.194165
19.8164,0.333316
19.8203,0.279683
19.8242,0.179652
19.8281,0.288581
19.832,0.201113
19.8359,0.315413
19.8398,0.327942
19.8438,0.214604
19.8477,0.165806
19.8516,0.280863
19.8555,0.179023
19.8594,0.152116
19.8633,0.127162
19.8672,0.0858976
19.8711,0.167186
19.875,0.122334
19.8789,0.176681
19.8828,0.109725
19.8867,0.0756052
19.8906,-0.00183233
19.8945,0.016852
19.8984,0.0721798
19.9023,0.0359258
19.9063,0.126088
19.9102,-0.0488756
19.9141,0.0238419
19.918,0.0387585
19.9219,-0.0456217
19.9258,0.0320242
19.9297,0.0911109
19.9336,-0.0457354
19.9375,-0.0602325
19.9414,-0.0863426
19.9453,0.0249274
19.9492,-0.113747
19.9531,-0.0709915
19.957,0.0522418
19.9609,-0.00442192
19.9648,-0.124855
19.9688,-0.0546707
19.9727,-0.182081
19.9766,-0.102923
19.9805,-0.0720692
19.9844,-0.0657755
19.9883,-0.16027
19.9922,-0.0944146
19.9961,0.00807922
20,0.104238
20.0039,0.174705
20.0078,0.301076
20.0117,0.448156
20.0156,0.575534
20.0195,0.805736
20.0234,0.87677
20.0273,1.00164
20.0313,1.12419
20.0352,0.99652
20.0391,0.971788
20.043,0.65579
20.0469,0.659109
20.0508,0.298826
20.0547,0.174592
20.0586,0.126935
20.0625,-0.0195575
20.0664,-0.122186
20.0703,-0.198398
20.0742,-0.245136
20.0781,-0.202817
20.082,-0.201511
20.0859,-0.135466
20.0898,-0.139137
20.0938,0.0404827
20.0977,0.0979935
20.1016,-0.0300521
20.1055,0.0832238
20.1094,-0.0397886
20.1133,0.08255
20.1172,0.0976199
20.1211,-0.0257888
20.125,-0.0302189
20.1289,-0.000221023
20.1328,0.146035
20.1367,0.0311691
20.1406,0.0849393
20.1445,0.0859832
20.1484,0.0983402
20.1523,0.0550809
20.1563,0.0752339
20.1602,0.0799522
20.1641,0.19889
20.168,0.0192036
20.1719,0.0930689
20.1758,0.178691
20.1797,0.146533
20.1836,0.0975178
20.1875,0.224544
20.1914,0.0720734
20.1953,0.12721
20.1992,0.251441
20.2031,0.216851
20.207,0.23423
20.2109,0.204689
20.2148,0.151281
20.2188,0.326855
20.2227,0.327267
20.2266,0.252655
20.2305,0.346848
20.2344,0.259738
20.2383,0.283139
20.2422,0.383409
20.2461,0.258971
20.25,0.443844
20.2539,0.267702
20.2578,0.339791
20.2617,0.302945
20.2656,0.39345
20.2695,0.473501
20.2734,0.507736
20.2773,0.439954
20.2813,0.501072
20.2852,0.458348
20.2891,0.50009
20.293,0.354346
20.2969,0.448884
20.3008,0.403032
20.3047,0.41236
20.3086,0.540234
20.3125,0.38303
20.3164,0.438288
20.3203,0.370859
20.3242,0.429513
20.3281,0.504928
20.332,0.319917
20.3359,0.471879
20.3398,0.292394
20.3438,0.290937
20.3477,0.368573
20.3516,0.250118
20.3555,0.2257
20.3594,0.326084
20.3633,0.184478
20.3672,0.360856
20.3711,0.256672
20.375,0.208822
20.3789,0.261012
20.3828,0.29521
20.3867,0.168792
20.3906,0.218162
20.3945,0.187958
20.3984,0.211359
20.4023,0.164238
20.4063,0.111443
20.4102,0.197424
20.4141,0.0642584
20.418,0.171028
20.4219,0.204219
20.4258,0.05497
20.4297,0.135279
20.4336,0.121227
20.4375,0.0669348
20.4414,0.0798314
20.4453,0.16672
20.4492,0.164725
20.4531,0.118306
20.457,0.0466936
20.4609,-0.0238246
20.4648,0.083473
20.4688,0.0788418
20.4727,0.0361924
20.4766,0.140653
20.4805,0.0891385
20.4844,0.0888068
20.4883,0.0230627
20.4922,-0.0211115
20.4961,0.0228473
20.5,0.0113117
20.5039,0.0338935
20.5078,0.134844
20.5117,-0.00227816
20.5156,-0.00221462
20.5195,0.0685583
20.5234,0.0881412
20.5273,0.00044596
20.5313,0.0959647
20.5352,0.138382
20.5391,0.126772
20.543,0.0239505
20.5469,0.0346845
20.5508,0.0090862
20.5547,0.0626432
20.5586,0.0391846
20.5625,0.0305115
20.5664,0.161599
20.5703,0.0558818
20.5742,0.0525237
20.5781,0.0959029
20.582,-0.00827171
20.5859,0.0197665
20.5898,0.124133
20.5938,0.095129
20.5977,0.0208344
20.6016,0.150171
20.6055,0.0669074
20.6094,0.0917967
20.6133,0.0891241
20.6172,0.0212355
20.6211,0.00123432
20.625,0.0783968
20.6289,-0.00762981
20.6328,0.0739367
20.6367,0.099199
20.6406,0.116085
20.6445,-0.0041185
20.6484,0.131727
20.6523,0.0243163
20.6563,0.109828
20.6602,0.113464
20.6641,0.147027
20.668,0.00453123
20.6719,0.164973
20.6758,0.0716848
20.6797,0.0756211
20.6836,0.0617445
20.6875,0.108826
20.6914,0.058073
20.6953,0.0736448
20.6992,0.0718921
20.7031,0.130053
20.707,0.139129
20.7109,0.207317
20.7148,0.200966
20.7188,0.086001
20.7227,0.0591027
20.7266,0.209805
20.7305,0.0899016
20.7344,0.149554
20.7383,0.23146
20.7422,0.0748513
20.7461,0.118687
20.75,0.163941
20.7539,0.206547
20.7578,0.28444
20.7617,0.162544
20.7656,0.327228
20.7695,0.235823
20.7734,0.321198
20.7773,0.284204
20.7813,0.259761
20.7852,0.293301
20.7891,0.362866
20.793,0.41335
20.7969,0.417143
20.8008,0.272998
20.8047,0.274526
20.8086,0.431097
20.8125,0.38231
20.8164,0.256554
20.8203,0.3439
20.8242,0.414127
20.8281,0.302687
20.832,0.272522
20.8359,0.248033
20.8398,0.227384
20.8438,0.248428
20.8477,0.276085
20.8516,0.195572
20.8555,0.251534
20.8594,0.273677
20.8633,0.120037
20.8672,0.232491
20.8711,0.204805
20.875,0.159588
20.8789,0.241983
20.8828,0.0666129
20.8867,0.160221
20.8906,0.081272
20.8945,0.0361636
20.8984,0.141645
20.9023,0.190771
20.9063,0.130868
20.9102,0.184799
20.9141,0.0548497
20.918,0.134226
20.9219,0.0391975
20.9258,0.0540944
20.9297,-0.012024
20.9336,0.108169
20.9375,0.137808
20.9414,0.0741735
20.9453,0.0530313
20.9492,-0.00804733
20.9531,-0.0681918
20.957,-0.0681288
20.9609,-0.030364
20.9648,0.161312
20.9688,0.100672
20.9727,0.277915
20.9766,0.355937
20.9805,0.566387
20.9844,0.675583
20.9883,0.87449
20.9922,1.07622
20.9961,1.14483
21,1.1597
21.0039,1.01538
21.0078,0.940563
21.0117,0.750242
21.0156,0.43579
21.0195,0.281819
21.0234,0.147134
21.0273,0.02928
21.0313,-0.0710651
21.0352,-0.108365
21.0391,-0.119131
21.043,0.0231183
21.0469,-0.0726072
21.0508,-0.047151
21.0547,0.0122362
21.0586,0.0269004
21.0625,0.146885
21.0664,0.0890892
21.0703,0.0570432
21.0742,0.165296
21.0781,0.119191
21.082,0.124623
21.0859,0.0684271
21.0898,0.230358
21.0938,0.150695
21.0977,0.0770473
21.1016,0.245092
21.1055,0.123204
21.1094,0.19273
21.1133,0.205791
21.1172,0.117306
21.1211,0.273636
21.125,0.219493
21.1289,0.200098
21.1328,0.271569
21.1367,0.215723
21.1406,0.115754
21.1445,0.215832
21.1484,0.289402
21.1523,0.28422
21.1563,0.261403
21.1602,0.159368
21.1641,0.312544
21.168,0.270748
21.1719,0.325379
21.1758,0.357257
21.1797,0.381227
21.1836,0.240204
21.1875,0.404774
21.1914,0.377005
21.1953,0.293665
21.1992,0.343685
21.2031,0.33482
21.207,0.435484
21.2109,0.444789
21.2148,0.363779
21.2188,0.560345
21.2227,0.424675
21.2266,0.448355
21.2305,0.455088
21.2344,0.411841
21.2383,0.516168
21.2422,0.467525
21.2461,0.502285
21.25,0.612672
21.2539,0.607977
21.2578,0.447543
21.2617,0.539123
21.2656,0.488461
21.2695,0.554638
21.2734,0.508279
21.2773,0.447178
21.2813,0.483818
21.2852,0.545422
21.2891,0.507163
21.293,0.389221
21.2969,0.367183
21.3008,0.395482
21.3047,0.478964
21.3086,0.42818
21.3125,0.402513
21.3164,0.288254
21.3203,0.260178
21.3242,0.404034
21.3281,0.29769
21.332,0.296401
21.3359,0.276811
21.3398,0.274402
21.3438,0.212852
21.3477,0.192652
21.3516,0.314849
21.3555,0.306028
21.3594,0.235117
21.3633,0.178292
21.3672,0.216575
21.3711,0.222914
21.375,0.261222
21.3789,0.0935804
21.3828,0.178402
21.3867,0.151424
21.3906,0.184905
21.3945,0.169547
21.3984,0.099743
21.4023,0.0727188
21.4063,0.0514373
21.4102,0.0592696
21.4141,0.110301
21.418,0.200295
21.4219,0.110387
21.4258,0.166328
21.4297,0.240316
21.4336,0.17084
21.4375,0.148844
21.4414,0.0871202
21.4453,0.188526
21.4492,0.218338
21.4531,0.212547
21.457,0.16011
21.4609,0.171825
21.4648,0.224115
21.4688,0.128043
21.4727,0.0997008
21.4766,0.168507
21.4805,0.101625
21.4844,0.167371
21.4883,0.0528944
21.4922,0.242717
21.4961,0.0855504
21.5,0.166069
21.5039,0.114518
21.5078,0.188932
21.5117,0.0513715
21.5156,0.0595267
21.5195,0.231953
21.5234,0.0644734
21.5273,0.113774
21.5313,0.152903
21.5352,0.0973634
21.5391,0.15698
21.543,0.204936
21.5469,0.153498
21.5508,0.235867
21.5547,0.0792519
21.5586,0.133531
21.5625,0.106582
21.5664,0.170485
21.5703,0.0584989
21.5742,0.0642775
21.5781,0.116451
21.582,0.0718828
21.5859,0.0865483
21.5898,0.127105
21.5938,0.0611599
21.5977,0.195406
21.6016,0.182188
21.6055,0.0891014
21.6094,0.0671011
21.6133,0.136405
21.6172,0.148122
21.6211,0.0965361
21.625,0.230484
21.6289,0.176846
21.6328,0.0626934
21.6367,0.239
21.6406,0.150968
21.6445,0.0735401
21.6484,0.0850698
21.6523,0.265797
21.6563,0.242226
21.6602,0.195524
21.6641,0.0821761
21.668,0.146468
21.6719,0.180843
21.6758,0.115026
21.6797,0.217609
21.6836,0.177861
21.6875,0.213158
21.6914,0.250103
21.6953,0.162095
21.6992,0.17243
21.7031,0.235865
21.707,0.295167
21.7109,0.318372
21.7148,0.269122
21.7188,0.417458
21.7227,0.413127
21.7266,0.348621
21.7305,0.466255
21.7344,0.393786
21.7383,0.331256
21.7422,0.450496
21.7461,0.380254
21.75,0.339104
21.7539,0.476705
21.7578,0.30798
21.7617,0.373139
21.7656,0.453961
21.7695,0.376467
21.7734,0.355703
21.7773,0.311827
21.7813,0.318127
21.7852,0.369394
21.7891,0.247126
21.793,0.202839
21.7969,0.227671
21.8008,0.184425
21.8047,0.20636
21.8086,0.231796
21.8125,0.203235
21.8164,0.164601
21.8203,0.254581
21.8242,0.133458
21.8281,0.147901
21.832,0.166855
21.8359,0.0718727
21.8398,0.102516
21.8438,0.076851
21.8477,0.0695176
21.8516,0.223605
21.8555,0.0459608
21.8594,0.197511
21.8633,0.117536
21.8672,0.020953
21.8711,0.0744885
21.875,0.072131
21.8789,-0.0517936
21.8828,0.111036
21.8867,0.0441314
21.8906,0.0227681
21.8945,0.145313
21.8984,0.0965415
21.9023,0.312785
21.9063,0.348649
21.9102,0.62936
21.9141,0.658455
21.918,0.961336
21.9219,0.99802
21.9258,1.0804
21.9297,1.17302
21.9336,1.06933
21.9375,0.860426
21.9414,0.650348
21.9453,0.469212
21.9492,0.44382
21.9531,0.198871
21.957,0.0545668
21.9609,-0.0235814
21.9648,-0.0223489
21.9688,-0.160467
21.9727,-0.133296
21.9766,-0.224414
21.9805,-0.148768
21.9844,-0.151164
21.9883,-0.0934201
21.9922,-0.0313724
21.9961,-0.0233695
22,-0.0115102
22.0039,0.088111
22.0078,0.132082
22.0117,0.0209024
22.0156,0.162971
22.0195,0.135863
22.0234,0.0962519
22.0273,0.184994
22.0313,0.106046
22.0352,0.0387777
22.0391,0.169179
22.043,0.172689
22.0469,0.0659304
22.0508,0.0720059
22.0547,0.178348
22.0586,0.113021
22.0625,0.0295323
22.0664,0.179894
22.0703,0.115287
22.0742,0.0921413
22.0781,0.109626
22.082,0.123707
22.0859,0.217321
22.0898,0.0748107
22.0938,0.221793
22.0977,0.261059
22.1016,0.154412
22.1055,0.23999
22.1094,0.166982
22.1133,0.257552
22.1172,0.161264
22.1211,0.353128
22.125,0.295698
22.1289,0.264682
22.1328,0.208506
22.1367,0.388473
22.1406,0.352242
22.1445,0.415596
22.1484,0.361253
22.1523,0.27586
22.1563,0.47153
22.1602,0.382642
22.1641,0.458973
22.168,0.353808
22.1719,0.496697
22.1758,0.524506
22.1797,0.505886
22.1836,0.508129
22.1875,0.442772
22.1914,0.505697
22.1953,0.480497
22.1992,0.4849
22.2031,0.435909
22.207,0.505091
22.2109,0.392016
22.2148,0.354152
22.2188,0.458794
22.2227,0.4469
22.2266,0.43777
22.2305,0.455427
22.2344,0.489969
22.2383,0.480419
22.2422,0.458608
22.2461,0.384541
22.25,0.434227
22.2539,0.257249
22.2578,0.286614
22.2617,0.210218
22.2656,0.294894
22.2695,0.319044
22.2734,0.192352
22.2773,0.226094
22.2813,0.14554
22.2852,0.172029
22.2891,0.253396
22.293,0.191348
22.2969,0.225039
22.3008,0.187051
22.3047,0.226725
22.3086,0.0498287
22.3125,0.063183
22.3164,0.102357
22.3203,0.158812
22.3242,0.181889
22.3281,0.00156874
22.332,0.0176418
22.3359,0.0692824
22.3398,0.132291
22.3438,0.0797246
22.3477,0.12171
22.3516,0.00123522
22.3555,0.0987341
22.3594,0.0852493
22.3633,-0.0394011
22.3672,0.105329
22.3711,0.15399
22.375,-0.0200974
22.3789,0.0252292
22.3828,-0.00964598
22.3867,0.0942006
22.3906,-0.0137785
22.3945,0.147478
22.3984,-0.0469106
22.4023,-0.0426605
22.4063,0.110035
22.4102,0.121003
22.4141,0.0622475
22.418,0.0998378
22.4219,0.0529925
22.4258,0.066391
22.4297,-0.0124857
22.4336,0.0502415
22.4375,-0.0400591
22.4414,-0.0388073
22.4453,0.0172315
22.4492,0.0765865
22.4531,0.129002
22.457,0.0854786
22.4609,0.0880427
22.4648,0.0903257
22.4688,0.111328
22.4727,0.0836648
22.4766,0.0557106
22.4805,0.0182473
22.4844,0.138909
22.4883,0.00154081
22.4922,0.0546553
22.4961,0.100644
22.5,0.00357713
22.5039,0.122021
22.5078,0.0606935
22.5117,0.135246
22.5156,0.0235136
22.5195,0.140589
22.5234,0.139217
22.5273,0.0713609
22.5313,-0.0256809
22.5352,0.0274861
22.5391,0.00942281
22.543,0.00761482
22.5469,-0.000155797
22.5508,-0.0450452
22.5547,0.133457
22.5586,0.0457222
22.5625,0.0708726
22.5664,0.0184731
22.5703,0.15432
22.5742,0.152468
22.5781,0.148791
22.582,0.0893606
22.5859,0.101617
22.5898,0.0235451
22.5938,0.0617426
22.5977,0.0124396
22.6016,0.102188
22.6055,0.115059
22.6094,-0.0231473
22.6133,0.00639101
22.6172,0.00455021
22.6211,0.0906672
22.625,0.113532
22.6289,0.138689
22.6328,-0.0202875
22.6367,0.0213534
22.6406,0.0806925
22.6445,0.0694926
22.6484,0.0698557
22.6523,0.0235422
22.6563,0.173054
22.6602,0.112321
22.6641,0.178582
22.668,0.166738
22.6719,0.0803833
22.6758,0.145819
22.6797,0.292243
22.6836,0.300528
22.6875,0.204696
22.6914,0.266837
22.6953,0.268999
22.6992,0.334441
22.7031,0.370065
22.707,0.201943
22.7109,0.370687
22.7148,0.309588
22.7188,0.237657
22.7227,0.242377
22.7266,0.336139
22.7305,0.308872
22.7344,0.299023
22.7383,0.365514
22.7422,0.27624
22.7461,0.166401
22.75,0.165209
22.7539,0.13704
22.7578,0.130241
22.7617,0.219626
22.7656,0.197834
22.7695,0.129371
22.7734,0.0731527
22.7773,0.105018
22.7813,0.174618
22.7852,0.0831564
22.7891,0.14392
22.793,0.0427823
22.7969,0.103714
22.8008,0.145784
22.8047,0.00469774
22.8086,0.0536645
22.8125,-0.0241805
22.8164,-0.0239925
22.8203,-0.040926
22.8242,-0.0410855
22.8281,0.0647491
22.832,0.016798
22.8359,0.0555069
22.8398,0.0895256
22.8438,0.0574717
22.8477,0.0818855
22.8516,0.0210739
22.8555,0.0281697
22.8594,-0.0336018
22.8633,-0.14781
22.8672,-0.0611428
22.8711,-0.0563511
22.875,-0.00875141
22.8789,0.0450754
22.8828,0.0484814
22.8867,0.205695
22.8906,0.402953
22.8945,0.526774
22.8984,0.772248
22.9023,0.768066
22.9063,1.031
22.9102,1.06388
22.9141,0.971491
22.918,0.976718
22.9219,0.827217
22.9258,0.604317
22.9297,0.509582
22.9336,0.412287
22.9375,0.138528
22.9414,0.0228843
22.9453,-0.189158
22.9492,-0.255017
22.9531,-0.314019
22.957,-0.361804
22.9609,-0.312648
22.9648,-0.30155
22.9688,-0.244946
22.9727,-0.253168
22.9766,-0.0428922
22.9805,-0.105846
22.9844,-0.103435
22.9883,-0.11018
22.9922,-0.0719791
22.9961,-0.0544819
23,0.0580439
23.0039,-0.0235973
23.0078,0.0021026
23.0117,-0.11645
23.0156,0.00225242
23.0195,0.0422523
23.0234,0.0203154
23.0273,-0.00316541
23.0313,0.0588778
23.0352,0.089082
23.0391,-0.0374261
23.043,0.0628502
23.0469,-0.0355488
23.0508,-0.0852083
23.0547,-0.0645023
23.0586,-0.0122356
23.0625,-0.0109846
23.0664,-0.0620522
23.0703,-0.0261919
23.0742,0.0377878
23.0781,0.11058
23.082,0.102335
23.0859,0.118472
23.0898,0.0776235
23.0938,0.180237
23.0977,0.20549
23.1016,0.206122
23.1055,0.12439
23.1094,0.226175
23.1133,0.136114
23.1172,0.193477
23.1211,0.199295
23.125,0.270957
23.1289,0.1734
23.1328,0.263741
23.1367,0.26605
23.1406,0.291192
23.1445,0.235864
23.1484,0.25376
23.1523,0.238103
23.1563,0.233009
23.1602,0.281875
23.1641,0.306402
23.168,0.352552
23.1719,0.452525
23.1758,0.267855
23.1797,0.410797
23.1836,0.455314
23.1875,0.451471
23.1914,0.304705
23.1953,0.472948
23.1992,0.36954
23.2031,0.454471
23.207,0.448796
23.2109,0.341893
23.2148,0.390771
23.2188,0.429813
23.2227,0.252213
23.2266,0.253318
23.2305,0.302149
23.2344,0.244505
23.2383,0.208455
23.2422,0.344276
23.2461,0.238805
23.25,0.32185
23.2539,0.177681
23.2578,0.262532
23.2617,0.286675
23.2656,0.247208
23.2695,0.126007
23.2734,0.136361
23.2773,0.121977
23.2813,0.087971
23.2852,0.0875242
23.2891,0.0235465
23.293,0.0831235
23.2969,0.0710158
23.3008,-0.0261861
23.3047,0.0840321
23.3086,-0.0421915
23.3125,-0.030229
23.3164,0.063593
23.3203,0.0289966
23.3242,-0.0886015
23.3281,-0.0394113
23.332,-0.0282568
23.3359,-0.0802011
23.3398,-0.0999216
23.3438,-0.0274539
23.3477,-0.0497795
23.3516,0.0372805
23.3555,-0.0234474
23.3594,0.0296414
23.3633,-0.0443086
23.3672,-0.135747
23.3711,-0.139402
23.375,-0.108703
23.3789,-0.0700421
23.3828,-0.000627212
23.3867,-0.113207
23.3906,-0.0899681
23.3945,-0.0171954
23.3984,-0.0890553
23.4023,-0.0822962
23.4063,-0.115678
23.4102,-0.0692194
23.4141,0.0324965
23.418,0.0311022
23.4219,-0.0674463
23.4258,-0.0107248
23.4297,-0.0949622
23.4336,0.0450514
23.4375,-0.0195132
23.4414,-0.102535
23.4453,-0.121448
23.4492,-0.0296511
23.4531,-0.0873892
23.457,-0.127456
23.4609,-0.109436
23.4648,-0.130665
23.4688,-0.00384437
23.4727,0.016867
23.4766,0.0225143
23.4805,-0.085434
23.4844,0.041239
23.4883,-0.0158479
23.4922,-0.134074
23.4961,-0.0676595
23.5,-0.0292394
23.5039,-0.00991744
23.5078,-0.0455951
23.5117,0.0278349
23.5156,-0.104845
23.5195,0.0617403
23.5234,0.034114
23.5273,-0.0640346
23.5313,-0.008234
23.5352,-0.0701721
23.5391,-0.112539
23.543,-0.0255577
23.5469,0.0356939
23.5508,0.0238976
23.5547,0.0610961
23.5586,-0.0612852
23.5625,-0.0496254
23.5664,-0.0970804
23.5703,-0.060018
23.5742,-0.0156187
23.5781,-0.0158834
23.582,-0.0934293
23.5859,-0.101641
23.5898,-0.0448568
23.5938,0.0422504
23.5977,-0.0864235
23.6016,-0.0225883
23.6055,-0.0967131
23.6094,0.0518263
23.6133,0.0332311
23.6172,-0.00608283
23.6211,-0.0397325
23.625,-0.0181293
23.6289,0.0629298
23.6328,0.0685705
23.6367,-0.0103497
23.6406,-0.00128268
23.6445,0.0782813
23.6484,0.0161761
23.6523,0.0604449
23.6563,0.0431791
23.6602,0.0112831
23.6641,-0.0313514
23.668,0.0534952
23.6719,-0.0209091
23.6758,-0.00798246
23.6797,0.136235
23.6836,0.00135868
23.6875,0.118682
23.6914,0.091114
23.6953,0.140795
23.6992,0.180715
23.7031,0.108912
23.707,0.0717421
23.7109,0.244748
23.7148,0.165353
23.7188,0.236681
23.7227,0.295278
23.7266,0.181182
23.7305,0.334379
23.7344,0.308006
23.7383,0.303397
23.7422,0.278078
23.7461,0.25475
23.75,0.220283
23.7539,0.302079
23.7578,0.249265
23.7617,0.277141
23.7656,0.307223
23.7695,0.25473
23.7734,0.253869
23.7773,0.16577
23.7813,0.228297
23.7852,0.105033
23.7891,0.0641286
23.793,0.107085
23.7969,0.000172922
23.8008,0.145917
23.8047,0.020623
23.8086,0.0916471
23.8125,0.104371
23.8164,0.072522
23.8203,0.0579526
23.8242,-0.0321344
23.8281,0.00945556
23.832,0.0958662
23.8359,-0.0475983
23.8398,-0.0575322
23.8438,-0.0477447
23.8477,0.0503913
23.8516,-0.04106
23.8555,0.0101899
23.8594,-0.0777803
23.8633,-0.102976
23.8672,-0.0669274
23.8711,-0.0943248
23.875,0.0252272
23.8789,0.010609
23.8828,-0.193281
23.8867,-0.104185
23.8906,-0.234372
23.8945,-0.171355
23.8984,-0.15267
23.9023,-0.0712161
23.9063,-0.0737636
23.9102,-0.0812946
23.9141,0.142714
23.918,0.237434
23.9219,0.344837
23.9258,0.576605
23.9297,0.638349
23.9336,0.786595
23.9375,0.965883
23.9414,0.933811
23.9453,1.00557
23.9492,0.910522
23.9531,0.910404
23.957,0.721538
23.9609,0.528732
23.9648,0.39633
23.9688,0.211585
23.9727,0.0163863
23.9766,-0.199328
23.9805,-0.258532
23.9844,-0.217059
23.9883,-0.144264
23.9922,-0.158335
23.9961,-0.115305
24,-0.0724016
24.0039,-0.153525
24.0078,-0.127726
24.0117,-0.00479783
24.0156,-0.094841
24.0195,0.0723816
24.0234,0.0787419
24.0273,-0.0264125
24.0313,-0.025398
24.0352,0.0478262
24.0391,0.0553683
24.043,0.0744559
24.0469,0.0354043
24.0508,-0.0614413
24.0547,0.0337432
24.0586,-0.0665791
24.0625,0.0795921
24.0664,0.0636108
24.0703,0.0555781
24.0742,-0.0144848
24.0781,0.0877483
24.082,0.095287
24.0859,0.0251349
24.0898,-0.0306997
24.0938,0.138515
24.0977,0.131504
24.1016,0.0876472
24.1055,0.136023
24.1094,0.162435
24.1133,0.0805673
24.1172,0.208062
24.1211,0.152208
24.125,0.10661
24.1289,0.115151
24.1328,0.253106
24.1367,0.162069
24.1406,0.133053
24.1445,0.306862
24.1484,0.262568
24.1523,0.343811
24.1563,0.201157
24.1602,0.343117
24.1641,0.290969
24.168,0.32491
24.1719,0.229834
24.1758,0.347264
24.1797,0.373878
24.1836,0.358744
24.1875,0.282046
24.1914,0.383086
24.1953,0.299463
24.1992,0.465069
24.2031,0.421464
24.207,0.445517
24.2109,0.440075
24.2148,0.437113
24.2188,0.503422
24.2227,0.346618
24.2266,0.403189
24.2305,0.472146
24.2344,0.397078
24.2383,0.442836
24.2422,0.317742
24.2461,0.410338
24.25,0.444078
24.2539,0.28194
24.2578,0.322382
24.2617,0.231735
24.2656,0.254476
24.2695,0.327993
24.2734,0.354063
24.2773,0.233486
24.2813,0.15458
24.2852,0.314746
24.2891,0.212566
24.293,0.285352
24.2969,0.15414
24.3008,0.212561
24.3047,0.0641678
24.3086,0.150063
24.3125,0.101492
24.3164,0.0905442
24.3203,0.202868
24.3242,0.151883
24.3281,0.0588715
24.332,0.109686
24.3359,0.0579893
24.3398,0.0826627
24.3438,0.152453
24.3477,0.0775996
24.3516,-0.0209188
24.3555,0.111779
24.3594,0.0850981
24.3633,-0.0420936
24.3672,-0.0348401
24.3711,-0.010495
24.375,0.012459
24.3789,0.0314528
24.3828,-0.0208318
24.3867,0.0884356
24.3906,0.0803815
24.3945,-0.0241917
24.3984,0.0436575
24.4023,-0.059512
24.4063,0.0540047
24.4102,-0.0105216
24.4141,0.0540177
24.418,-0.0205873
24.4219,0.0567695
24.4258,-0.000145941
24.4297,-4.97153e-005
24.4336,-0.036472
24.4375,0.0676456
24.4414,0.0872625
24.4453,0.109402
24.4492,0.0276765
24.4531,-0.0357414
24.457,0.0470138
24.4609,-0.033106
24.4648,0.0101764
24.4688,0.0995638
24.4727,0.015623
24.4766,0.115799
24.4805,0.00614459
24.4844,0.0720373
24.4883,0.0509676
24.4922,-0.0457358
24.4961,0.0174113
24.5,0.120708
24.5039,-0.0522979
24.5078,0.0142202
24.5117,-0.0136489
24.5156,-0.0154078
24.5195,0.0112591
24.5234,0.12546
24.5273,0.0419452
24.5313,0.102905
24.5352,0.0131274
24.5391,0.035626
24.543,0.134924
24.5469,-0.0278864
24.5508,-0.0396133
24.5547,0.0883454
24.5586,0.134269
24.5625,-0.0294954
24.5664,0.0798572
24.5703,-0.0204769
24.5742,0.0898979
24.5781,0.0770274
24.582,-0.038543
24.5859,0.113117
24.5898,0.151612
24.5938,0.0425778
24.5977,0.0250662
24.6016,-0.0332003
24.6055,0.00303517
24.6094,0.0751756
24.6133,0.0802904
24.6172,0.0116742
24.6211,0.0933582
24.625,-0.0239544
24.6289,0.153937
24.6328,-0.0135187
24.6367,0.0372999
24.6406,0.103695
24.6445,0.0777624
24.6484,0.0872416
24.6523,0.0616065
24.6563,0.145007
24.6602,0.0539629
24.6641,0.134415
24.668,0.197039
24.6719,0.0877978
24.6758,0.194513
24.6797,0.200684
24.6836,0.0804587
24.6875,0.100461
24.6914,0.166151
24.6953,0.235371
24.6992,0.244571
24.7031,0.264291
24.707,0.145326
24.7109,0.183939
24.7148,0.32509
24.7188,0.353796
24.7227,0.346586
24.7266,0.396215
24.7305,0.399325
24.7344,0.265735
24.7383,0.326399
24.7422,0.382882
24.7461,0.328295
24.75,0.343399
24.7539,0.325438
24.7578,0.351761
24.7617,0.208114
24.7656,0.282197
24.7695,0.21645
24.7734,0.223712
24.7773,0.251642
24.7813,0.274859
24.7852,0.193541
24.7891,0.197918
24.793,0.10807
24.7969,0.111885
24.8008,0.115041
24.8047,0.135059
24.8086,0.0828267
24.8125,0.078282
24.8164,0.195964
24.8203,0.128018
24.8242,0.192719
24.8281,0.123736
24.832,0.0461686
24.8359,0.0131562
24.8398,0.0991351
24.8438,0.0759085
24.8477,0.123058
24.8516,0.133281
24.8555,0.0564165
24.8594,0.0827406
24.8633,-0.000269922
24.8672,0.132606
24.8711,0.027461
24.875,-0.0421253
24.8789,-0.0748017
24.8828,0.0492904
24.8867,-0.0166823
24.8906,-0.0138462
24.8945,-0.00606517
24.8984,0.0605347
24.9023,0.0906863
24.9063,0.174237
24.9102,0.377017
24.9141,0.433836
24.918,0.57245
24.9219,0.744996
24.9258,1.01245
24.9297,1.07574
24.9336,1.15401
24.9375,1.03849
24.9414,1.0048
24.9453,0.750558
24.9492,0.761339
24.9531,0.489709
24.957,0.323674
24.9609,0.218791
24.9648,0.0076072
24.9688,-0.026562
24.9727,-0.144702
24.9766,-0.174913
24.9805,-0.108296
24.9844,-0.131328
24.9883,-0.165953
24.9922,-0.102199
24.9961,0.0822719
25,0.0611676
25.0039,0.0800327
25.0078,0.0330562
25.0117,-0.0142229
25.0156,0.10546
25.0195,0.0049444
25.0234,0.0547659
25.0273,0.0428733
25.0313,0.0971091
25.0352,0.16339
25.0391,0.137693
25.043,0.0776455
25.0469,0.0759606
25.0508,0.0363631
25.0547,0.0586322
25.0586,0.172416
25.0625,0.0503656
25.0664,0.220798
25.0703,0.128416
25.0742,0.0641953
25.0781,0.169007
25.082,0.227845
25.0859,0.138486
25.0898,0.233141
25.0938,0.227625
25.0977,0.213592
25.1016,0.180908
25.1055,0.195038
25.1094,0.213382
25.1133,0.22448
25.1172,0.196446
25.1211,0.265354
25.125,0.187786
25.1289,0.306971
25.1328,0.218329
25.1367,0.397653
25.1406,0.410009
25.1445,0.320474
25.1484,0.462358
25.1523,0.473042
25.1563,0.494047
25.1602,0.341691
25.1641,0.324031
25.168,0.385743
25.1719,0.417265
25.1758,0.405691
25.1797,0.520209
25.1836,0.423087
25.1875,0.475191
25.1914,0.443588
25.1953,0.465517
25.1992,0.580032
25.2031,0.403494
25.207,0.427347
25.2109,0.476916
25.2148,0.564308
25.2188,0.434236
25.2227,0.572594
25.2266,0.572097
25.2305,0.444473
25.2344,0.556455
25.2383,0.372826
25.2422,0.488496
25.2461,0.439153
25.25,0.433691
25.2539,0.392956
25.2578,0.324063
25.2617,0.293433
25.2656,0.376075
25.2695,0.393934
25.2734,0.351903
25.2773,0.296986
25.2813,0.376521
25.2852,0.291247
25.2891,0.204074
25.293,0.281788
25.2969,0.196028
25.3008,0.269201
25.3047,0.307244
25.3086,0.150473
25.3125,0.272545
25.3164,0.215841
25.3203,0.0867549
25.3242,0.108756
25.3281,0.239112
25.332,0.141427
25.3359,0.215915
25.3398,0.189835
25.3438,0.0328082
25.3477,0.179044
25.3516,0.158314
25.3555,0.191431
25.3594,0.131185
25.3633,0.137894
25.3672,0.0328618
25.3711,0.0516646
25.375,0.0147953
25.3789,0.0952972
25.3828,0.0708137
25.3867,0.0622805
25.3906,0.103626
25.3945,0.0403552
25.3984,0.190595
25.4023,0.191817
25.4063,0.122122
25.4102,0.0041255
25.4141,0.184801
25.418,0.141119
25.4219,0.0197353
25.4258,0.204733
25.4297,0.0688897
25.4336,0.168419
25.4375,0.0994652
25.4414,0.125215
25.4453,0.103919
25.4492,0.1195
25.4531,0.0446706
25.457,0.12764
25.4609,0.0417181
25.4648,0.100398
25.4688,0.119367
25.4727,0.104745
25.4766,0.179702
25.4805,0.212629
25.4844,0.208366
25.4883,0.163627
25.4922,0.0549534
25.4961,0.0227454
25.5,0.0537141
25.5039,0.132012
25.5078,0.142662
25.5117,0.0904624
25.5156,0.145314
25.5195,0.196751
25.5234,0.0696815
25.5273,0.0767304
25.5313,0.0450188
25.5352,0.126122
25.5391,0.18503
25.543,0.081299
25.5469,0.179345
25.5508,0.109676
25.5547,0.132845
25.5586,0.220425
25.5625,0.161626
25.5664,0.218169
25.5703,0.0438107
25.5742,0.204726
25.5781,0.0373126
25.582,0.0508285
25.5859,0.152878
25.5898,0.10136
25.5938,0.0919142
25.5977,0.187877
25.6016,0.0899245
25.6055,0.152066
25.6094,0.124146
25.6133,0.0916851
25.6172,0.20136
25.6211,0.151048
25.625,0.0535388
25.6289,0.0956913
25.6328,0.0801056
25.6367,0.16214
25.6406,0.0954426
25.6445,0.159362
25.6484,0.213632
25.6523,0.266694
25.6563,0.237197
25.6602,0.110854
25.6641,0.293662
25.668,0.313068
25.6719,0.252648
25.6758,0.336542
25.6797,0.225596
25.6836,0.354548
25.6875,0.189467
25.6914,0.301104
25.6953,0.248503
25.6992,0.295659
25.7031,0.279317
25.707,0.374418
25.7109,0.396299
25.7148,0.341441
25.7188,0.287022
25.7227,0.287995
25.7266,0.289587
25.7305,0.290126
25.7344,0.273952
25.7383,0.458207
25.7422,0.400885
25.7461,0.393002
25.75,0.236311
25.7539,0.239173
25.7578,0.253135
25.7617,0.364305
25.7656,0.364638
25.7695,0.353745
25.7734,0.20936
25.7773,0.184141
25.7813,0.149632
25.7852,0.248333
25.7891,0.231906
25.793,0.115798
25.7969,0.155697
25.8008,0.0701018
25.8047,0.1853
25.8086,0.204704
25.8125,0.216307
25.8164,0.1968
25.8203,0.122986
25.8242,0.102703
25.8281,0.0410539
25.832,0.190337
25.8359,0.0432832
25.8398,0.0167996
25.8438,0.0608421
25.8477,0.180732
25.8516,0.109326
25.8555,0.0302129
25.8594,0.10054
25.8633,0.0413153
25.8672,0.0110414
25.8711,-0.0287569
25.875,0.0856549
25.8789,0.0896113
25.8828,-0.0149383
25.8867,0.0989228
25.8906,0.285656
25.8945,0.450745
25.8984,0.556952
25.9023,0.754327
25.9063,0.900504
25.9102,0.965516
25.9141,1.19187
25.918,1.07433
25.9219,1.10865
25.9258,0.834555
25.9297,0.75562
25.9336,0.509333
25.9375,0.376255
25.9414,0.331959
25.9453,0.163868
25.9492,-0.0934272
25.9531,-0.110604
25.957,-0.217798
25.9609,-0.126685
25.9648,-0.296379
25.9688,-0.140187
25.9727,-0.233452
25.9766,-0.0878095
25.9805,-0.147493
25.9844,-0.116818
25.9883,-0.0842334
25.9922,0.0923762
25.9961,-0.00860992
26,0.0544721
26.0039,-0.0547117
26.0078,-0.0118596
26.0117,0.120574
26.0156,0.0404156
26.0195,-0.0487338
26.0234,0.0457897
26.0273,0.119853
26.0313,0.131773
26.0352,0.0201599
26.0391,0.00995472
26.043,0.132172
26.0469,0.0568387
26.0508,0.0744982
26.0547,0.0143613
26.0586,0.0121753
26.0625,0.168299
26.0664,0.191032
26.0703,0.0765504
26.0742,0.170457
26.0781,0.203008
26.082,0.198641
26.0859,0.196348
26.0898,0.173695
26.0938,0.0809145
26.0977,0.104208
26.1016,0.154315
26.1055,0.0838316
26.1094,0.144487
26.1133,0.299272
26.1172,0.178763
26.1211,0.244013
26.125,0.265828
26.1289,0.337964
26.1328,0.25128
26.1367,0.325212
26.1406,0.242222
26.1445,0.228542
26.1484,0.354967
26.1523,0.382413
26.1563,0.318177
26.1602,0.386694
26.1641,0.348605
26.168,0.459534
26.1719,0.382188
26.1758,0.459376
26.1797,0.455812
26.1836,0.530444
26.1875,0.384903
26.1914,0.470342
26.1953,0.372096
26.1992,0.467524
26.2031,0.529753
26.207,0.369108
26.2109,0.425826
26.2148,0.499327
26.2188,0.525429
26.2227,0.447922
26.2266,0.539657
26.2305,0.418098
26.2344,0.376322
26.2383,0.406856
26.2422,0.332887
26.2461,0.320098
26.25,0.328841
26.2539,0.412809
26.2578,0.368891
26.2617,0.425672
26.2656,0.371835
26.2695,0.31638
26.2734,0.276332
26.2773,0.228113
26.2813,0.305616
26.2852,0.158556
26.2891,0.145781
26.293,0.256418
26.2969,0.165727
26.3008,0.196739
26.3047,0.126694
26.3086,0.196552
26.3125,0.113459
26.3164,0.17332
26.3203,0.217705
26.3242,0.0251061
26.3281,0.0924299
26.332,0.00865153
26.3359,0.126688
26.3398,0.156467
26.3438,-0.0156356
26.3477,0.0646936
26.3516,0.0654267
26.3555,0.0866783
26.3594,0.00485329
26.3633,0.0610713
26.3672,-0.0233578
26.3711,0.0649824
26.375,0.0704063
26.3789,0.0201588
26.3828,-0.0424054
26.3867,0.00857954
26.3906,0.0418787
26.3945,-0.0141694
26.3984,0.0864216
26.4023,-0.0560975
26.4063,-0.0311589
26.4102,0.105507
26.4141,0.0485384
26.418,0.0677086
26.4219,0.0790358
26.4258,-0.0736153
26.4297,-0.000436143
26.4336,0.0617203
26.4375,-0.0554998
26.4414,0.0433312
26.4453,-0.0336343
26.4492,0.0852153
26.4531,0.0848116
26.457,0.00837581
26.4609,-0.00298298
26.4648,0.110702
26.4688,-0.0796576
26.4727,-0.00128049
26.4766,0.0169065
26.4805,0.0432895
26.4844,-0.0660357
26.4883,-0.0512027
26.4922,0.0513998
26.4961,-0.0354896
26.5,-0.0550381
26.5039,-0.0699511
26.5078,-0.045184
26.5117,0.0242052
26.5156,0.095714
26.5195,0.0757857
26.5234,-0.0502064
26.5273,-0.0639458
26.5313,0.0578225
26.5352,0.0200353
26.5391,0.0229349
26.543,-0.0131974
26.5469,-0.0109421
26.5508,0.106427
26.5547,0.0149212
26.5586,0.0748259
26.5625,-0.0376077
26.5664,-0.0574326
26.5703,-0.0327711
26.5742,0.0378452
26.5781,0.0586405
26.582,0.114381
26.5859,-0.0651743
26.5898,-0.0402524
26.5938,0.0148927
26.5977,-0.0073348
26.6016,-0.054211
26.6055,0.0901438
26.6094,0.00827866
26.6133,0.0597332
26.6172,0.0423698
26.6211,-0.0700021
26.625,0.0600763
26.6289,-0.00625995
26.6328,-0.0158702
26.6367,0.0237928
26.6406,0.0572665
26.6445,0.0941444
26.6484,0.0473953
26.6523,-0.0582063
26.6563,0.0974978
26.6602,-0.00423421
26.6641,0.108608
26.668,0.0852394
26.6719,0.0725252
26.6758,0.0341406
26.6797,-0.0242852
26.6836,0.169082
26.6875,0.109259
26.6914,0.0315218
26.6953,0.0137302
26.6992,0.054012
26.7031,0.197788
26.707,0.0730854
26.7109,0.138692
26.7148,0.238557
26.7188,0.109942
26.7227,0.175545
26.7266,0.224293
26.7305,0.234119
26.7344,0.262487
26.7383,0.19611
26.7422,0.239569
26.7461,0.325574
26.75,0.361509
26.7539,0.276481
26.7578,0.249186
26.7617,0.278952
26.7656,0.253307
26.7695,0.245485
26.7734,0.214497
26.7773,0.214117
26.7813,0.271575
26.7852,0.180167
26.7891,0.336584
26.793,0.167842
26.7969,0.156045
26.8008,0.252517
26.8047,0.228468
26.8086,0.149492
26.8125,0.0802462
26.8164,0.0484889
26.8203,0.106612
26.8242,0.175647
26.8281,0.0942263
26.832,0.0124418
26.8359,0.142468
26.8398,0.103051
26.8438,0.0525689
26.8477,0.0607209
26.8516,0.0523209
26.8555,0.066854
26.8594,0.0650967
26.8633,-0.0301607
26.8672,0.0881613
26.8711,-0.0361059
26.875,0.0037394
26.8789,-0.0346897
26.8828,-0.0312909
26.8867,-0.0883915
26.8906,0.0891113
26.8945,-0.00257292
26.8984,-0.0282971
26.9023,-0.0352917
26.9063,-0.0949725
26.9102,-0.119906
26.9141,-0.0118817
26.918,-0.133623
26.9219,-0.0896122
26.9258,-0.104667
26.9297,-0.0603454
